time,ppg_data
2025-02-14 18:14:27,"[1672.9695333422503, 1986.5196553719618, 2216.113184415829, 2493.918122733051, 2806.8106653586556, 2846.5604560478023, 2516.249915114878, 2109.589100760952, 1816.209120716534, 1559.8247375471844, 1339.6201571845245, 1244.8592064620648, 1217.5792816009798, 1144.5399528706253, 1046.1488806896825, 1011.7706414282894, 1072.2017060977037, 1184.4196269738184, 1310.4166373545024, 1470.119696095914, 1677.319484473341, 1904.2246625957316, 2123.3212574035683, 2350.916611836757, 2646.116401149444, 2921.029280345342, 2883.24636564336, 2460.6434007928774, 1959.5965476723031, 1591.618456459412, 1309.5231863371719, 1112.1467476792704, 1045.0223813606967, 1025.4957906296465, 971.9356303879786, 935.9019601730683, 975.392615278263, 1073.5447197843982, 1216.1340349288685, 1398.8621242113222, 1597.258858571863, 1825.6783311215577, 2099.0083124430876, 2366.5272579970588, 2652.985103027816, 2981.696502913906, 3071.4518838744675, 2664.5019846946175, 2064.637542241032, 1724.2847554001344, 1596.8337485745558, 1439.6365394486972, 1306.0076781284652, 1297.4818055292226, 1300.7177484706763, 1238.807614611777, 1200.3543490100606, 1250.2334178915248, 1362.8335035817054, 1506.458594804575, 1673.795693635549, 1881.6760286742272, 2126.9791293533235, 2355.8273266158517, 2594.3444944620633, 2867.258504521744, 2908.1774834608004, 2473.592701048884, 1810.635041041505, 1274.1700168698114, 882.6274566705758, 572.2001959353911, 391.0804651505164, 317.68058227808547, 248.06650236350606, 174.1571711653471, 178.87949270609806, 289.90779234106003, 472.95899654107916, 718.3376796012442, 1009.5299108411571, 1318.4586323171898, 1667.086160681808, 2053.7465519425987, 2473.5510129698164, 2957.59435114887, 3312.285955625516, 3213.7210303277834, 2737.341359365554, 2269.979505577941, 1996.063499805234, 1871.8224206888535, 1874.3646042866021, 2015.7243337210807, 2226.299823746451, 2406.2743978197277, 2578.4667320706967, 2807.3006553248147, 2956.2332000733954, 2800.6227994066658, 2508.0180059194245, 2545.9194157072834, 2826.8143646620356, 2733.712688888596, 2243.645657499581, 1929.9255005196203, 1893.0341316480747, 1705.8929634336498, 1173.6077837220764, 570.5895082527868, 201.50741265043052, 38.40820643423399, -16.304338343877134, 66.14409757960289, 185.7342711212193, 199.41706165233177, 208.9288288190087, 333.6013950215993, 489.97275588860884, 639.6522134719257, 875.6532208909048, 1194.0812650750026, 1507.460967585664, 1831.3809603804043, 2223.8712402147, 2679.802239752486, 3146.386149520097, 3401.083390187241, 3206.375322510432, 2760.058264553223, 2386.7327542229955, 2050.451281741343, 1725.2060820366826, 1562.8471058857754, 1532.4061252404144, 1494.4279661626615, 1444.2664641650817, 1442.2077831719794, 1516.6136512958176, 1651.5841772651988, 1811.0123793073287, 1987.6772235468488, 2190.311362552326, 2419.01847025803, 2695.7068226301217, 2971.578960979671, 3003.0150037077133, 2618.855714595008, 2021.7031268413898, 1482.4959922466846, 1018.8231633633393, 627.5935499702475, 406.6551432988149, 348.4612258609541, 362.34924168605926, 421.4219925177588, 541.0371955033004, 739.1864276781989, 990.9089648725949, 1255.459712063815, 1604.7584336638224, 2026.2728718289925, 2292.357222561396, 2446.644956867056, 2780.2271258758647, 3124.305330116747, 3044.633106138016, 2565.268155685179, 2036.3850180766015, 1631.8709522294212, 1329.6617900436138, 1135.567149531881, 1060.8321316923543, 1014.1540210983663, 955.6016962612612, 978.5429060868113, 1111.5154186594439, 1286.8820029469687, 1496.2548470480704, 1765.8320563970706, 2049.8311530190886, 2309.126806981358, 2637.4912063406473, 3055.3280731129157, 3245.703251829506, 2940.23357264669, 2365.5271633199986, 1848.4274822591028, 1429.222008515291, 1110.1935485272707, 944.244191837977, 874.3140492604622, 816.1024722192798, 774.2089408412251, 796.0366695047908, 913.7452224110066, 1113.6310133115053, 1347.2016420886303, 1604.4883227518603, 1911.9802895372718, 2233.775731116529, 2550.260135879759, 2930.0643362216915, 3209.7955881407743, 3017.833181154605, 2429.7510393261327, 1891.0912859992852, 1477.2977225179172, 1038.4493886015252, 712.24298908142, 630.6226093203484, 632.4550674229724, 608.2302725096147, 648.7996718471131, 782.6836243150159, 966.2561128219149, 1252.3681016020703, 1656.4601484390673, 2039.8490139042972, 2324.6674033261097, 2628.0973190327295, 3037.1795993122587, 3333.515386217052, 3195.858282984276, 2646.4255758876525, 1970.1717055626314, 1392.5434311734725, 1039.8137669949772, 909.77593007187, 875.4577661841827, 852.3182430024823, 847.3428362859779, 879.4317843108402, 964.2958506016197, 1118.0698399787025, 1313.5885500270692, 1530.041051334189, 1838.9843381878031, 2258.486684897168, 2668.629463483927, 3037.905976503634, 3366.1556897151377, 3372.627309481969, 2826.4965521057784, 2060.9170437274706, 1523.2767662031242, 1198.6367846426733, 953.5354816539356, 829.6683720250253, 803.7585958311697, 783.412911542804, 772.2355049400907, 812.1203092551505, 918.7199536734296, 1094.57903680752, 1306.9209564449716, 1540.0812172020082, 1857.4554795165532, 2260.5019148833076, 2664.3692779640073, 3047.748140921676, 3300.2233100821663, 3177.1830665490934, 2670.3988062283424, 2038.0636188001486, 1499.0798209842392, 1144.012997416199, 959.0443391979252, 867.6837245870756, 802.5824820711259, 748.4666994804746, 738.8193438733686, 769.9223757310486, 843.4538839816327, 1060.5526354443114, 1402.3356235096167, 1691.83331949097, 1922.3251272645978, 2183.624536796482, 2447.3385248235872, 2728.6764982804125, 3025.7251669587645, 3088.814635036567, 2729.245500177124, 2169.897551563828, 1716.9440333127427, 1401.730639084009, 1174.982774720464, 1056.1027067294135, 1000.8571754806538, 934.9257615947809, 870.0607921567145, 851.7994602323804, 894.3359847837941, 988.4376625144611, 1122.9911629063674, 1291.4674070137967, 1475.0507191579575, 1653.8772293844765]"
2025-02-14 18:14:39,"[1100.6734299617276, 1428.6767377719339, 1322.0345445929386, 856.351317522805, 419.2019203034614, 167.29553351710888, 28.929997582895567, -12.28082518476208, 29.666139393372305, 74.1469737603129, 96.85058341061006, 146.45623924173833, 260.1824061837474, 447.98015839163827, 691.388341705165, 949.5374036350975, 1206.3711493998417, 1460.0856298296476, 1713.1844584601256, 2016.8317378529923, 2346.3715472806844, 2459.0892483412886, 2175.57548066051, 1688.6562451885975, 1281.6633934388312, 985.1630098969099, 753.5773320031105, 636.3499465968798, 619.101138535888, 600.1506624964218, 562.2666958802336, 566.8332454628361, 630.1939576383979, 729.0795669118545, 868.4019011669086, 1057.6402518756774, 1263.3448205879474, 1466.2976249463109, 1696.7111030945553, 1947.578408525822, 2139.898698478706, 2161.993120411449, 1931.6982242972665, 1523.1379741431226, 1137.1193888549824, 875.2802138153595, 708.1813557298287, 615.5390897059335, 582.1820048080564, 561.9747664908762, 545.7964285477697, 579.815011791346, 686.7781475224697, 802.9971753258703, 858.5776850102436, 919.3134619992296, 1093.5693873176256, 1338.9209600120992, 1573.8212673645996, 1834.390534258386, 2070.735060909536, 2042.354290998813, 1678.1750571636678, 1230.2228544772695, 904.1964128840411, 682.5472038713061, 534.9842063389532, 473.8050608322386, 460.14353154523246, 451.0681792949737, 452.31781545039723, 491.7604535924081, 593.8751534672851, 742.0650748850045, 902.176881667281, 1095.1915168114988, 1336.7004700020868, 1568.280043776767, 1783.851636770316, 2061.7254483315337, 2320.8304587958346, 2298.45671705348, 1926.993471413801, 1453.2340510463769, 1095.0644376608411, 848.8562688056838, 666.5295117512114, 573.6252873278895, 555.1452902837608, 526.2296050586958, 480.880470680421, 501.73913911465, 591.9376562191205, 692.9844571368943, 850.3014005367311, 1069.8333319842538, 1193.0750366655056, 1238.9539685585225, 1408.4593169221432, 1671.8132040331438, 1917.9584101431358, 2142.599043888762, 2174.9334417429136, 1851.7366281266807, 1386.598485221264, 1044.303957230341, 804.0655998586928, 611.4847407655188, 521.790910313474, 509.24364281444105, 479.7947247054551, 442.5411957515987, 459.44315679322347, 528.277668786614, 636.4594828912439, 795.4673671785604, 984.5020302259846, 1173.5585719228561, 1365.664933715499, 1580.4505644202836, 1838.2523037803207, 2078.83738742414, 2106.4949549703842, 1817.641007474154, 1401.9205843783707, 1084.53100978847, 871.1966699007646, 719.6763544257251, 649.5482048262783, 623.9204873161125, 599.985334950063, 597.8583592032495, 610.5779447683454, 645.9727593808449, 751.6818385022182, 867.5708934488717, 964.2339632231354, 1197.4810386149052, 1566.4562759787887, 1874.4920225884243, 2086.03820265389, 2150.102222977066, 1902.0693773146304, 1460.9853504614318, 1096.1686802871175, 836.8501096229861, 650.9188137879394, 589.5124695271111, 601.9524651064777, 586.0025058978654, 561.9009099465943, 584.0184353399213, 649.0387308170912, 762.1895819101267, 921.532241433521, 1089.3629950706304, 1261.3121190226066, 1448.0001198626287, 1653.0423820388032, 1913.2951520400406, 2157.811242850599, 2145.292222775817, 1802.0715757976561, 1374.0796256398412, 1062.64169598094, 838.6754734176836, 667.6943197035553, 574.9602730236461, 531.1305675838037, 506.31492986858586, 516.227446472184, 554.8284887677082, 620.0816675755658, 735.7970067896705, 888.5026874974711, 1060.8763866341064, 1267.4259631817215, 1474.3534456077668, 1669.785728097112, 1945.8336234795368, 2210.6932144072143, 2144.212767157832, 1719.8937442752108, 1258.687159733361, 929.5363559984067, 690.3384678500216, 534.408060149894, 476.8159251913137, 467.3054098368657, 448.51235230878535, 429.46597616019335, 456.24453142447044, 543.7041211920251, 670.5205339446281, 829.5019295066973, 1037.5109848980846, 1281.65897256372, 1519.334541682404, 1763.1354274574478, 2044.611084054441, 2219.791200735351, 2064.1446733931866, 1652.5344342148924, 1265.479610073535, 981.063932378936, 758.183024769422, 636.1255334896749, 604.2471420168968, 594.1532317381892, 587.3799716406409, 595.36835967887, 659.0997530843805, 794.3379507901201, 953.4284035831702, 1144.131959930049, 1381.4921087292419, 1595.3759163783297, 1811.9272880010917, 2100.5801709332645, 2246.97481181338, 1992.8081913365374, 1498.3405933104482, 1071.464280367805, 760.5643143258379, 530.9319116824258, 431.2676965904187, 435.37010976077727, 426.23389340080814, 387.2761823114114, 406.68744040458785, 501.53695026812375, 630.5094036159605, 808.4355902024962, 1039.68241017507, 1287.9856044399846, 1559.8173476506117, 1878.8232034823995, 2232.0715515152615, 2478.178721762228, 2358.114816480028, 1877.7164499478345, 1371.544550402648, 1005.3044590119176, 716.2285997082264, 526.6438470961872, 466.20851394861006, 446.5031056677208, 413.7584802782807, 409.8962230102826, 472.969950265404, 593.6997929211252, 747.3355237044772, 927.7520921662215, 1137.7059766595107, 1362.2884236712496, 1608.911238012191, 1921.002559092754, 2211.182090367878, 2209.099567244208, 1818.5758434526963, 1311.7506447021628, 939.5528565280359, 677.3394929354685, 477.3953067874495, 390.0912035100023, 390.244587740179, 387.70787823547016, 390.69043465360767, 460.0613626600417, 591.1689953826773, 756.8984866045722, 957.126715314852, 1190.2662224634041, 1433.1781216094155, 1680.6679092496393, 1986.6596155045527, 2287.7487837128265, 2295.0171956049157, 1905.1807901099287, 1423.1355920516205, 1094.214328520839, 880.9273418233051, 750.9696010124744, 714.3875046290889, 706.713393195752, 702.3713721681534, 740.6357357513059, 819.7788892658255, 934.9174076368479, 1103.8280832164867, 1309.0888499630532, 1526.6614255568786, 1765.617086354463, 2049.0888704764698, 2310.723372743965, 2308.302862184073, 1906.9382105276284, 1360.2850955289916, 931.0429541067749]"
2025-02-14 18:14:51,"[850.5780528948004, 742.5390563687934, 670.5479348776289, 611.7374948382112, 564.6499258229844, 570.6941916416122, 649.9526207951924, 778.416336438289, 915.7071875598584, 1106.1831775088754, 1437.665973887464, 1849.2217275755902, 2243.1289593271385, 2504.313629915426, 2310.2398543018653, 1633.4687885739754, 993.348063262101, 627.6445374094628, 339.78017389535137, 120.57534517972852, 51.98437155902798, 39.579096719211975, 8.820031355954939, -3.7441158747501504, 64.4763290690455, 221.50061848830455, 373.54551453136554, 480.3413202081396, 655.2136306173684, 930.2784290225486, 1187.9119106831572, 1441.4049740308242, 1772.418683754755, 1966.2797339283065, 1738.8300380407463, 1245.3874596592432, 838.3971413491502, 565.0979232141763, 336.8681102405583, 222.956686220905, 250.5417920396061, 283.40617949449165, 274.3451576130401, 320.76385144256756, 453.5220564305147, 623.3263430702107, 819.9537179868506, 1041.600262440966, 1273.7792655339863, 1558.4718845650302, 1860.8199513175919, 1922.3768263053137, 1582.3941029112107, 1069.7406103559456, 671.803677444688, 416.11654696493423, 249.32203324282023, 179.06536403249595, 169.8142256841336, 166.15439681272892, 190.12202185042588, 275.5650391175782, 418.5906578005436, 622.2711359770901, 884.8159089788853, 1164.6408184748927, 1429.680702700246, 1740.6123713789523, 2100.871060300542, 2220.875006144988, 1852.3412536717233, 1250.8380646539388, 795.9571548084577, 498.4705365222095, 267.0111787107443, 153.8299344690913, 145.62854361761038, 139.64829166902553, 135.55701489066405, 199.25114034000865, 332.76035481746186, 498.8052965847189, 694.6445976319733, 940.1378102407807, 1209.1200704100108, 1483.3618885293336, 1808.9891552682036, 2065.8103518690423, 1949.7202302666446, 1461.8310550655901, 956.8525540051863, 606.283808503364, 337.52247040977716, 162.3077820375771, 121.70430556247629, 128.38153988953718, 107.81051107715473, 106.24079984906734, 181.48805966219084, 327.01935345207824, 513.3739705376031, 725.8942259319917, 961.1921494091891, 1210.39180654515, 1491.299260917206, 1821.6674881033907, 2030.1368911102609, 1857.9471461074722, 1387.3239380738828, 945.3457997071156, 641.3387277393185, 428.2348380572168, 325.8178635628002, 313.1167902065466, 311.4534126318431, 305.11642680347154, 329.8649085321806, 422.1982826627902, 577.970437274107, 760.8817276207009, 965.3952946128643, 1184.330195032113, 1422.371045352882, 1726.715847824899, 1970.3198005266252, 1860.148598463234, 1396.2120594635167, 906.2427567212455, 553.8705534424944, 278.28518926587185, 107.25751686308092, 93.18261575918586, 132.8732026930477, 138.1238025928933, 158.97615289447674, 244.02989497933982, 384.5566411061756, 565.7659738550727, 782.8975842657968, 1038.4555414001236, 1302.8215783663115, 1567.304132248643, 1887.841158690992, 2138.486191479476, 2020.3192883391562, 1554.3615122486947, 1071.7805197770836, 714.4079967538288, 440.69488279649556, 281.1517671744739, 243.62071408407655, 228.11381989267807, 179.3934658555695, 156.23918399938339, 218.58226848985748, 345.41688970482943, 488.3320610895268, 661.1872079611758, 903.2324727978389, 1169.4435230865909, 1426.4788878652403, 1749.5807870835777, 2040.5968564261805, 1975.6254425225234, 1532.167669536025, 1056.5340918188153, 713.5895644869852, 438.0867441315488, 254.74780011207656, 197.231219288656, 184.85838641708585, 161.17560494565078, 152.70044904959127, 208.5307839988959, 340.75488216579134, 510.7235421212201, 714.4075818195269, 970.9586446069642, 1236.5140096902567, 1512.7938895814711, 1814.6464412007408, 1918.0320745814765, 1599.422675739676, 1058.9391128047669, 637.7963162063963, 403.9458309128433, 297.3550755607164, 293.75431246387666, 335.09951178397677, 367.9976200055547, 412.50834419079376, 497.5177772313448, 619.3436682680792, 784.8845812225485, 997.9309762607414, 1220.5728351485814, 1465.2333893624545, 1777.2752698046656, 1980.0456519925997, 1795.0099676440564, 1309.5474286474828, 855.2216172284922, 540.6792580324059, 322.93160719428454, 222.30697088526483, 213.53002561159417, 215.08062017704992, 227.00247889207253, 288.82047900063185, 399.77195435351376, 558.3214908616667, 765.9333476110926, 994.3701555616994, 1233.0987090191434, 1535.7629283262825, 1873.380855827761, 1977.449637618864, 1651.3338262679272, 1125.034703571389, 708.1765935988493, 422.9550196261048, 238.27111669256567, 188.22717967858432, 208.61192346354346, 214.1230880984558, 231.56018323180888, 301.43476836809964, 407.8612826115583, 561.8335233157404, 795.2643157297873, 1062.2384191554574, 1313.330207801048, 1601.024758766132, 1891.4566829132518, 1922.8817381537226, 1543.5183486532228, 1001.6968782207612, 625.59361357274, 453.8912648014647, 377.1152241714168, 354.028155501239, 365.10475202211785, 374.7394241220778, 380.8032630681362, 414.8132385444798, 485.58322131177624, 575.9752570679059, 716.8397740562851, 941.0609132197633, 1238.8507310425503, 1597.9181604967716, 1817.673455866362, 1602.8559019883648, 1119.5479567354366, 798.5583748283788, 662.9433278749185, 540.7279271771935, 469.9736602915491, 487.6007463828378, 520.9439484115467, 528.3985175039952, 530.0398438306904, 582.8934368253931, 700.8355172895091, 851.9437400086729, 1040.719681036389, 1242.5953146190325, 1413.643220261425, 1585.7062652976833, 1704.60180080822, 1575.5560351737604, 1174.6557808731918, 713.3602161616901, 349.8764999804082, 125.7469588211477, 55.9907612184503, 70.30676983849241, 67.68497884034264, 69.33823985716936, 141.4364938764478, 283.0737559659091, 486.1424088337094, 746.455365960027, 1024.4157581699171, 1338.7175182424853, 1738.2635429555546, 2028.624492723808, 1888.9933232550266, 1395.2658255628553, 930.9078518920301, 630.1376803690554, 423.4902288211705, 344.7103854175948, 389.9322162897464, 433.2171108947333, 453.9879851694664, 551.4374014807044, 747.9010705404457, 982.6476432736735]"
2025-02-14 18:15:03,"[860.0256832318538, 1121.2498964592564, 1436.7648456719298, 1795.794814147369, 1926.1155462386314, 1587.849152644282, 1019.5095897480503, 582.7396169360788, 299.7851041674428, 117.75313285353434, 90.08115146734315, 152.7776720828847, 181.715921583012, 203.25274813422698, 300.96515566251946, 467.5036699834796, 669.6865170138664, 918.6040210598123, 1187.3806045862345, 1446.4283685691942, 1785.0745371405162, 2141.736632557021, 2144.679903467818, 1685.3480697354294, 1137.5205932094284, 753.3951695381552, 496.4949847999527, 365.01921618217773, 351.77166869633015, 358.27846602103943, 354.63904081650446, 394.2593032128774, 503.3820705479524, 668.9316417490309, 878.185780653143, 1126.1768761777867, 1380.1764896858508, 1647.7803159948098, 2015.1610155057483, 2341.30858870177, 2241.1073750971336, 1704.1251858827593, 1144.5416032658932, 750.5730196293543, 447.51194898332227, 262.51104186627174, 221.5257285187978, 224.73716203286097, 218.04476469361282, 239.4458691708311, 322.6586305725863, 471.052973453443, 668.7301799048719, 897.561180855592, 1141.7133997848546, 1390.3297040549915, 1692.2490071407892, 2058.9533355393382, 2234.5164661806784, 1943.9496507992328, 1372.1300831157023, 888.4543967342591, 553.2791742937345, 312.64752499381837, 206.21659809847688, 200.3296197953157, 198.62220578423478, 186.70589768612592, 218.31562852124136, 324.6124364684716, 482.8189464048241, 683.8704210335108, 946.6994302413539, 1229.9260477224889, 1469.4584492019787, 1715.9153940938374, 2011.9005578598567, 2136.4478773285473, 1859.4931570561912, 1374.4077362025068, 997.2989337149263, 732.4970073398792, 519.8272069965067, 433.94822773971174, 452.44403093210633, 446.9458779308376, 409.369091817753, 430.4105085084609, 533.9022259084852, 681.6492871080652, 860.0027630870104, 1063.5997900149341, 1262.0231137881824, 1468.0635350084108, 1726.931663698966, 1915.5172669389244, 1790.0582376282414, 1374.2362527510518, 954.9880298847937, 671.5981765765968, 478.6794800276881, 385.48998486801713, 411.43086374141967, 463.57760056085226, 470.4202971114613, 501.1211475892914, 621.2717244239636, 747.5074096870045, 788.797058952991, 835.6005645591897, 1008.2576855184238, 1257.92198615038, 1519.4594617785467, 1790.3735191039527, 1922.9557512649212, 1714.522242849479, 1260.284935854057, 852.162888300311, 582.3300757225452, 384.49735360644036, 286.68061089582636, 303.3268625717518, 336.8954109371166, 360.49841038386717, 431.57548386727177, 560.2734595176573, 727.0715394006296, 913.0966805493584, 1098.2040406941305, 1277.4212730108306, 1447.4855523018227, 1625.9235499910756, 1818.4006917907711, 1890.4241656024888, 1691.3942784488381, 1321.8681327183385, 993.2196021095609, 750.8973965561619, 575.6430527390578, 507.9186022006553, 516.1880128085677, 497.51885920496875, 460.668711407812, 496.5540599170041, 605.8818921770684, 732.8819335950474, 881.0594432697136, 1056.4766451952423, 1231.6414539300454, 1435.576932558496, 1644.8176400389793, 1651.1968138454154, 1363.2967181270155, 991.8459602526736, 710.7893754272303, 521.7979865047299, 435.307584136763, 446.6151676106148, 488.0796198674094, 521.1430966132344, 571.8838315591347, 680.5522136999792, 829.709622767288, 993.1422964284336, 1194.8501857452934, 1422.8137965456094, 1668.630017822627, 1927.288861521586, 1999.1098373673208, 1713.4357568367464, 1263.7178539377976, 875.9151652621755, 545.7150302841465, 297.65391293122593, 197.13158994083403, 181.2228632338854, 180.65617369585834, 208.84819960601772, 287.2567554591129, 424.01526690951255, 619.4040665876187, 862.7080934716231, 1125.0564309681085, 1391.8705428572327, 1713.0652917935347, 2052.461729448785, 2156.6114556839107, 1866.6662812713255, 1389.2412521143888, 984.6009655284033, 681.0253118265971, 457.0628706212483, 349.7558860885139, 332.2645474619542, 333.65761950337344, 336.0793979746451, 355.2663856362261, 405.9890190311836, 509.3881550084185, 672.2264753877581, 875.5398723478719, 1108.1217767390685, 1357.148513399567, 1624.8063860075722, 1950.5202242892044, 2214.9528578201353, 2126.2855019151057, 1675.421341527062, 1191.6603514414815, 831.4782383813837, 533.3518670048134, 340.13278059235483, 297.17243438292303, 293.211340242535, 258.74646826751723, 258.21051704760407, 336.22958400867935, 469.60517019052116, 639.4247985467774, 850.5361682436101, 1092.0089873151103, 1336.7956578015783, 1611.1585148150066, 1924.9101241812282, 2086.20002766588, 1875.9765570635677, 1413.2198749949403, 989.2757109846347, 686.0865143802799, 479.4297952483357, 404.36009243192836, 409.53563411644825, 384.762653588847, 350.80691663206494, 385.3236693733056, 484.40459717771216, 612.537982352249, 770.3431891429886, 969.038460045894, 1192.7106225502782, 1441.5297305635886, 1733.38807177952, 1932.7686494212685, 1794.8862273180107, 1348.8824521363608, 897.3408882331986, 590.5149578700318, 388.4881021680386, 297.17594518399835, 308.14243383143196, 330.12128381074444, 332.74606161114843, 366.71983134791105, 463.0215067162016, 612.1688676042124, 787.8742931755718, 987.9511243496707, 1221.9917150911258, 1462.1453089705783, 1730.8565366965413, 2053.403722100829, 2207.845044494223, 1952.9460952088239, 1457.6773119985905, 1035.839483756987, 744.8963867890193, 543.8492023565868, 456.93215553970094, 458.6452485369706, 470.43728957469904, 475.304836669369, 511.0256761277841, 605.3737929211072, 755.7693094262117, 932.7713606179635, 1124.2955154263636, 1349.8624520829321, 1605.3859382716078, 1880.7748378480046, 2142.0195765175995, 2205.9576757654536, 1902.5929229153598, 1382.7797401710532, 933.8506241327412, 623.2106788482693, 393.6395056192424, 250.1606155900074, 181.79461880207305, 123.49158762246111, 47.3738625911069, -6.485642657954145, 15.278258878804763, 103.19259054299437, 199.0476480686026, 289.7475636166031, 397.19227427165185, 514.7881026549542, 644.3930428687158, 802.3969861990136]"
2025-02-14 18:15:15,"[1027.243698084188, 657.8743100443685, 369.1361432396526, 185.63391437229495, 69.11754165741218, 23.46016015471548, 68.9208442206185, 140.12539656391277, 187.06797021963303, 257.22769599052765, 388.66344453147894, 560.0860961715293, 759.4963412021901, 996.8777378526014, 1243.3471431866542, 1467.5513252685337, 1725.7849667432633, 2001.163388583268, 2051.605525984168, 1741.2330567455647, 1290.7688593895284, 935.9782903041094, 690.5048426220571, 543.2455256259072, 506.99037811879094, 502.79760440435155, 466.9639586421928, 455.3012048090618, 521.3184904116794, 636.5668422734808, 770.4178881266167, 944.4749082503963, 1175.2302474874107, 1414.4482524759026, 1634.4400046092765, 1906.6954803965734, 2186.5456458645303, 2187.085362007233, 1791.3905367545449, 1285.9292259761241, 906.735558905034, 610.4565499633165, 395.2025672078255, 328.6160573008251, 329.2607853665977, 299.789211154897, 288.4063337112275, 354.9039336697348, 475.06014701011304, 617.0642116769435, 802.3402872690356, 1053.6456718562426, 1320.236902721971, 1565.1012784122208, 1859.3884826583212, 2166.107758904139, 2201.367496836059, 1827.207393960066, 1304.0681043849074, 890.4141771629297, 586.2401621664617, 381.98981921841937, 321.5391863014471, 323.29004108093955, 279.62539707324265, 247.3017019370459, 314.60906140091504, 445.6146275854469, 598.8523771410436, 795.5608427870332, 1032.0832761610113, 1273.2874350469237, 1512.6386496814625, 1805.3531537695621, 2135.8301085051976, 2242.136174765999, 1919.0656846886059, 1387.73768159768, 950.8333562990466, 635.2486166920683, 426.71754325349457, 363.20639433191616, 358.68065504212996, 322.33230785452133, 314.706458927275, 389.7046539361761, 508.41671392210935, 661.4205624149947, 881.5487006026589, 1146.945863594978, 1392.7542842572973, 1661.1785093658805, 2033.7762985183595, 2280.9940879369806, 2057.5781360639708, 1502.3329075915426, 1012.8626858925343, 673.2242568327987, 418.71133071024803, 301.921167918332, 313.1108854110481, 327.14163648071985, 309.7838245068292, 344.5325751842429, 467.4544643380751, 629.5000970197418, 809.1685678987017, 1039.1579777218406, 1311.0557936076907, 1590.170622789266, 1917.5812752121242, 2243.178743548596, 2267.070901787977, 1845.0967925596353, 1274.6941440594157, 842.003657535754, 536.8077441675352, 332.2773271341989, 272.9458041596765, 314.4081679572528, 360.77862567680484, 390.4907189557483, 450.69719748251464, 564.154717104268, 689.0969145003758, 821.9711594627836, 1026.5464237336305, 1286.3375072396768, 1568.658569359151, 1925.8303926320255, 2160.1317912673157, 1902.6289024876678, 1386.4667129216677, 1181.9189168146765, 1161.06870572447, 901.5480060949576, 556.8353539528703, 407.60173232813077, 384.6677098655507, 364.3326570972797, 338.11643791373115, 352.7912852420503, 443.82337298497487, 584.1877229789427, 758.8925587700701, 985.9511515701874, 1240.6996753627316, 1501.9807935751978, 1806.0173920408538, 2112.791390274945, 2195.204675190329, 1876.6310392715122, 1334.151893124816, 884.420023880353, 602.313799727305, 427.9238251453552, 364.29943789258016, 373.85257965355595, 373.1051215214071, 368.14899536135886, 417.1882116771957, 536.7962829624842, 716.5809146081745, 945.1875336386179, 1196.4647804325136, 1456.8928427461726, 1775.2480007635427, 2110.553448599295, 2172.4619679808957, 1783.1035342164864, 1221.0922636769644, 800.2966821755356, 517.5493918335201, 339.9175650603148, 301.9920859255798, 325.2073032003267, 322.1869101564175, 329.74070368415494, 406.7964233451837, 553.0909935108675, 749.3678512660669, 997.8441664178944, 1281.6933240503508, 1560.7253707262716, 1875.995623881619, 2234.741826758008, 2373.255520393145, 2055.3345472276324, 1484.227452746158, 988.1597659368509, 629.964829010236, 387.00787726535646, 281.590264375018, 260.0221450237635, 247.97613066077656, 253.81098195443997, 312.7363520205116, 441.66412562277947, 628.7234694776571, 839.2596809818599, 1081.1237326549806, 1371.991069920124, 1683.4696181853483, 2020.1172936522275, 2298.292848173439, 2221.9711035990704, 1715.4887916248927, 1138.7726806325056, 744.0200692222448, 465.8796092996081, 282.7847245115436, 233.5611643266949, 232.77486781054586, 213.68263593655013, 233.4876604018948, 322.9836205757323, 458.5885471879657, 645.314052713641, 877.3033417050625, 1127.550169958949, 1394.62908848002, 1706.0244794240132, 2072.2860008345788, 2314.819166225167, 2138.8114343356083, 1602.4881742978255, 1089.0261907838567, 754.68644103801, 516.4235550024314, 377.00876245853954, 344.6398279237027, 333.55722081154966, 323.13500283510916, 368.8547904885735, 482.1884323766294, 645.6857642035937, 862.9180326297038, 1129.2990899641723, 1402.0002107342511, 1673.9386752717082, 2013.5090998551052, 2317.3561661452613, 2244.1886158314032, 1727.8649778967524, 1134.9433967318075, 708.7059537321857, 403.3458701234954, 214.6856743104405, 172.7110231597942, 188.9357188544152, 186.77305243145543, 192.1645541601813, 252.21810372870914, 390.32427266818684, 598.5071368615206, 864.2354544842595, 1175.8057774451163, 1478.239779044142, 1784.5216403545537, 2171.7937981420337, 2452.096811008556, 2289.370499104687, 1751.7002250978658, 1199.490569167453, 779.0466220050696, 477.40274047461617, 334.46899770800815, 326.8018306738727, 343.4790791325122, 343.1917144230931, 365.75782573935794, 452.3964927607234, 616.4967915777922, 837.6737616683047, 1096.5552194730233, 1388.496194883116, 1679.2338603899102, 1972.5652474403041, 2337.142814533904, 2633.0308998680066, 2518.554868997295, 1976.5910451340437, 1357.1845818150668, 874.7102882793722, 541.3247201966067, 362.51484200915183, 282.0723678712352, 191.68587776708432, 80.45476526168181, 10.253401592058708, -4.352583581814088, 26.555686964554752, 123.30583283293231, 266.1449866109126, 386.35510027547355, 510.1459306335927, 702.5868701663126, 836.7918674838913, 784.5622608958782]"
2025-02-14 18:15:27,"[1493.980923938386, 1023.223115882725, 727.0581400995627, 604.6360736984966, 590.9971307579102, 628.9831523958147, 660.3434592712596, 686.193469247086, 765.9858969763707, 930.0031879223723, 1149.2319167806675, 1405.4524493077167, 1714.2008023471076, 2045.277092246542, 2374.5047782696047, 2751.4792306452127, 3043.522095236268, 2897.366362757797, 2284.661253286659, 1621.742725795343, 1178.987453023114, 901.5725137313482, 742.2733079403837, 705.6861572008211, 715.6561813358427, 700.9355522150145, 701.1313193737985, 789.6864055343963, 960.1981583572838, 1173.326803208437, 1445.2138161291923, 1760.869396830603, 2049.2372612308563, 2373.6704559697973, 2810.352394721015, 3058.778128456007, 2733.811585778162, 2020.4505444792653, 1407.4864311535487, 1015.5188881714568, 731.851731122078, 574.490278988091, 547.1360838466492, 538.7675604625715, 516.4016258753475, 559.5211977925834, 711.6957998012886, 930.0134157702461, 1163.738103079691, 1431.207765667289, 1743.2648248849528, 2012.2490813839577, 2218.099384321185, 2437.146409824165, 2513.5355372316526, 2191.228230156284, 1631.8021234554838, 1209.7739587003448, 997.0311858921414, 905.3633698331687, 934.5657977799972, 1039.3380970484225, 1120.068641328339, 1188.0497556025484, 1313.4364686315005, 1497.5116650260443, 1728.267332343001, 2022.9158680692794, 2348.255567491591, 2663.6406483869932, 3005.9084114885977, 3288.184549172317, 3193.78797125275, 2621.5643375830796, 1929.0297532385448, 1421.1673050765407, 1066.0414861599265, 826.311419932782, 672.0041607227038, 434.41515444289234, 139.94853137739028, 6.814282445832532, -2.892672605210919, 26.118469334419842, 265.50173135887917, 722.5226341186368, 1173.200215009273, 1613.2179852714316, 2094.9405469298918, 2422.6745612106524, 2428.4002292140376, 2147.1287453795235, 1707.38366173137, 1287.7175299912717, 1008.1525526449591, 858.8331179503446, 809.8679730850993, 849.3197760693336, 928.8629179536082, 1000.211578414006, 1079.9718998856877, 1216.939456887049, 1431.7423502275487, 1701.2686180155986, 1981.5651224014007, 2288.678911389021, 2640.486178805078, 2841.9416811461188, 2661.3530505144963, 2225.20062340592, 1815.3349121633896, 1481.2085221584682, 1203.1716768671427, 1065.251746692493, 1057.2424491871848, 1051.0102509383148, 1018.3789833352473, 1043.052573555141, 1170.746993260788, 1375.0363003827015, 1613.066949464568, 1894.7954207799182, 2265.3352711317657, 2582.8308271789147, 2521.4124671361205, 2034.5808784473134, 1456.4430407310922, 1029.1344247408783, 755.5825623534307, 632.1533490858708, 650.2875722338953, 713.9777277495344, 764.4315762624204, 853.6041515883544, 1042.9538255349553, 1327.2653639946907, 1651.4910161458545, 1995.836774711156, 2397.2950086081755, 2763.8395277241525, 2826.9049403753324, 2457.164307487687, 1822.590276409213, 1186.7004473292545, 734.0460688783594, 527.1103901602289, 510.39780105721377, 575.1642797308289, 655.4931804789067, 756.4689145906368, 904.3960859859455, 1124.8432014047992, 1422.7387150434558, 1755.74253031083, 2126.4801056360952, 2582.813664856637, 2947.3607030996427, 2873.919640885355, 2374.834543909054, 1811.4110558047562, 1351.6139219885515, 972.4445497926463, 751.3809420053337, 713.7612296460723, 719.0335691535968, 704.7662934248422, 746.2216749600915, 865.2672077064835, 1032.6996566873308, 1275.520905883617, 1588.137680991259, 1890.9987376341205, 2206.3923439573573, 2591.8262560282615, 2816.070502335142, 2567.777181220385, 1994.1413466871795, 1476.4470825217427, 1087.9330550654295, 774.3716553354528, 619.6618948820679, 615.7022937719555, 622.072981455445, 601.3961779086773, 629.1533711277166, 756.5900581355842, 931.8648718646056, 1111.8768757104363, 1400.9864774094192, 1818.5862072940477, 2212.990563714513, 2556.919001550098, 2785.7433789264205, 2635.1022239955155, 2143.727457752981, 1675.8658436687633, 1348.133317384249, 1100.998357285583, 1004.5512926118224, 1041.5624874730954, 1058.4260287706554, 1049.9537558382517, 1107.329199744619, 1227.9817019931568, 1395.6192673642413, 1621.7339698238304, 1870.7041580975665, 2125.750553936547, 2406.956400620991, 2587.7504165248297, 2443.2382755220915, 2010.6765365117112, 1563.590029524246, 1202.6248759097516, 885.9365186616182, 700.4639308914433, 702.4913219242483, 755.8562303859748, 763.0794528548972, 795.4802100633761, 915.688032522901, 1083.2412576470044, 1274.4284951511854, 1515.2216327274487, 1772.1707026611762, 2019.6953292571227, 2312.6547055263495, 2536.58727060239, 2420.9373662238963, 2003.9887254083526, 1599.6965280967588, 1314.3915806727784, 1080.465439598307, 954.3644315063112, 979.1919053782841, 1008.7009378257895, 934.3478801601223, 855.0694166951957, 894.629505115186, 1050.7228038532087, 1268.6000793603246, 1512.2625472689474, 1754.4460489468252, 2006.470963800023, 2274.5455665142076, 2403.888915593103, 2219.451645929879, 1830.8513686991287, 1467.35984435024, 1188.0681612777691, 1000.8863847302862, 939.5557983490258, 952.018531834809, 965.6867452175389, 974.5381074625188, 1011.9115787946906, 1127.5906804541924, 1320.5754462174689, 1531.3907139583862, 1739.8749066055157, 1976.952506618682, 2251.1954619653147, 2442.7356958603777, 2341.460188313089, 1953.881639507123, 1545.4128796611024, 1269.039040136703, 1087.6756441642824, 1001.530928036515, 1023.1768968805062, 1070.986265865678, 1101.7299998497217, 1173.9370885549768, 1293.4011979748934, 1442.3994352763066, 1673.7555095514695, 1918.8060968091859, 2098.138517834225, 2430.1739088489035, 2929.543491269684, 3046.400518324811, 2519.871644080173, 1821.6946358047167, 1350.9265628026985, 1023.0206611599757, 748.2674051245176, 598.19681588316, 551.2975651469039, 518.1894237035033, 466.3877709579143, 419.9065919141599, 493.73301134090923, 746.8442687913056, 1006.4263165124873, 1135.628572316474, 1270.91709076781, 1495.9223606106245, 1567.3652428780144, 1327.9670068075466]"
2025-02-14 18:15:39,"[1135.7440207629393, 789.4867378777476, 522.8184224520569, 382.1086716752744, 366.828068043823, 411.47181996901475, 451.0403014055091, 500.91910126973414, 594.5900227515765, 728.553155871007, 909.2976924443608, 1143.2553673886887, 1394.0144965698357, 1661.6011415456992, 1983.2448312413921, 2201.950272321183, 2043.001831424916, 1566.5983481045737, 1102.8784336664485, 786.1166759157596, 577.0436424533078, 491.0985574752318, 516.5221900823426, 553.0366206107033, 553.9635075240989, 589.5723177232276, 705.4110771955292, 855.1989021091636, 1056.0368347501399, 1317.2797704611214, 1473.6051743517528, 1529.8982417256132, 1744.4373763368626, 2016.313291719543, 1927.0502059053156, 1468.6223245135234, 995.5875232793, 647.133939306766, 380.05466861350556, 239.75645337832918, 241.50901981734035, 287.31604823413636, 316.7902985762107, 360.328324732067, 461.81583848696164, 630.6972542956669, 853.7233091552672, 1107.223876115712, 1377.3061299318783, 1700.571988468523, 2094.9796024660573, 2390.9985179512505, 2307.4764929323837, 1835.569676583216, 1305.1743332549229, 934.0058157047939, 670.2903290981769, 505.5240393044071, 490.54743515920234, 547.6314350951598, 598.8587913902174, 671.520334984376, 802.3085099407078, 1004.5037351447255, 1248.290427059293, 1528.248746659648, 1905.7110954352815, 2247.948694513999, 2313.0436618762615, 2184.278572026449, 2000.0447163828658, 1617.7003873860679, 1060.6452632424212, 600.3486249416404, 299.59897340930183, 111.71983564458685, 83.78466215755475, 147.6136473242741, 175.56826631547983, 191.04275365727824, 246.8772580773284, 335.7954718900231, 473.26410431590705, 677.9313051147874, 911.4435296442114, 1131.7461584809316, 1377.3020903130855, 1678.5927596079273, 1884.6424717347672, 1789.9345330377619, 1435.51715370067, 1055.5515292265661, 793.2468133777709, 667.1355101647356, 671.3316700945365, 741.8855920314576, 774.3948896639853, 751.7117034932887, 730.3013587695707, 746.8239634815864, 826.7860363304645, 999.4235716280482, 1260.9242318796946, 1544.0706568427627, 1809.0426255006491, 2115.228310645448, 2358.126036865585, 2238.975210165101, 1785.039550735501, 1340.8671004338985, 1016.8728705375138, 740.9588061255231, 582.3403565924764, 582.501744812714, 599.1712419205666, 542.0741386156893, 486.25976160392895, 502.34344402446084, 598.4310700882999, 773.5190398141772, 997.3838521582612, 1223.209389044845, 1453.528702456385, 1744.1553651873767, 2058.9086297298923, 2149.2642647862885, 1848.6260382150385, 1376.7862733908062, 1006.7671896585949, 730.895770822122, 501.4592805458211, 380.4594263918425, 353.60646164153036, 325.1110986610877, 274.89948044032633, 269.6007849566033, 366.0762918352873, 547.6617797613171, 772.0035170304923, 1029.5791740329075, 1297.3430222182305, 1565.5056554408711, 1895.00647293025, 2249.6267104954813, 2391.1590684731873, 2123.6331777721725, 1543.2891014511677, 972.0631494130143, 637.7292902464658, 498.14588526021635, 444.5819929779168, 444.6154400211882, 453.6711134441223, 445.8739714430425, 471.90954940139306, 566.6762205128663, 712.7028440827155, 908.6682187448189, 1150.9129742439586, 1384.3542114002512, 1623.7104762353504, 1946.9356584751808, 2179.5559795223553, 1993.0917529437397, 1467.06986845858, 997.9645963625404, 712.528158908891, 524.0300540422213, 446.24346990455376, 455.77423664332593, 446.5901410355996, 426.510346836547, 464.14341359189757, 561.062038465164, 706.7192543489507, 918.9384820298271, 1194.6538277911588, 1472.9301198382702, 1726.8650452959882, 2055.117313846558, 2419.222220053175, 2466.277291473206, 2039.86405703374, 1468.65195547966, 1024.6360200464337, 681.7745772999115, 449.2903151361154, 375.9141868908923, 369.43395725658763, 340.50534155468154, 337.04357600542585, 415.32372798332267, 550.1298541101643, 725.4226708736237, 968.4897722572332, 1253.723763630345, 1513.8879556217494, 1792.5326807562055, 2152.8802957421312, 2369.6251980167017, 2128.567497859992, 1557.617324420665, 1049.3835979237056, 714.8895521657153, 469.9406068407087, 337.32337532581596, 326.0501565355529, 330.8135940098633, 309.8902555929101, 324.14242984316843, 405.7477890180634, 544.2236743637534, 739.940295472539, 983.2076980286407, 1231.0536571250288, 1496.8991464779656, 1843.251743798464, 2098.580690610638, 1907.1722725793377, 1328.9344505911176, 862.368174760523, 708.6236401668637, 653.4070342260835, 610.2884919908729, 646.9048494156003, 698.4432034592652, 701.418650835489, 729.8912829350347, 834.5548466956432, 1006.0502647789815, 1232.937731441947, 1461.702898864867, 1671.6387383561027, 1914.9858489597832, 2135.4031601599163, 2147.180781384351, 1854.7314252555327, 1372.9349030266053, 914.1990103662233, 597.3594839963021, 426.156851246448, 360.9143877874851, 334.857739024947, 314.1875160135694, 339.97995688538526, 451.6711867957513, 636.5973997283204, 880.4222659536199, 1176.3422055193598, 1491.7294101705597, 1851.6171584961307, 2285.4156919685784, 2554.878598650812, 2361.1215576631967, 1826.7976527919368, 1268.977230147451, 780.0852788461273, 386.35552073906865, 182.84151541196889, 151.2170908385982, 152.64850739115138, 137.43905094624415, 186.04129942468228, 343.1261000651109, 567.060067865785, 838.4831567816507, 1160.8855426640248, 1503.053604030966, 1883.7516767702418, 2306.800263634685, 2514.8286172930602, 2224.3584112111084, 1617.0359316340157, 1093.0427267002676, 680.4095339972444, 253.7828352106534, -0.4487152923404665, 26.96584293169235, 67.26084309784073, 2.207584865785293, 1.0570407222246558, 107.95775894181111, 262.910794284874, 492.82268071050476, 810.5761753413335, 1166.452499451476, 1591.4016249402946, 2177.993118735307, 2751.6024881052376, 2857.774846598343, 2411.5712079648, 1866.3491876613027, 1488.2428887336196, 1191.137481583843, 1018.1369487060035, 1039.236858272313, 1107.4310156097415, 1151.6726825183582, 1244.402514417357]"
2025-02-14 18:15:51,"[797.2865644879234, 1032.2122896318738, 1314.6400178890162, 1610.339769005098, 1937.5909033701591, 2338.4063530876765, 2607.1023493928137, 2428.7166196559356, 1864.5503517188845, 1266.2909933726369, 790.7292259673904, 417.99468923005304, 200.9102858915736, 146.16849488498144, 131.96583326687687, 116.87741661226698, 173.5974996012834, 325.17272006991936, 541.4994939371206, 817.5714975765595, 1157.2917912554788, 1556.130637911831, 2026.6748668832488, 2480.7626372527557, 2601.8457418059024, 2188.3179761410456, 1516.8306575483305, 948.3796086391943, 513.0807871962841, 190.22580304552832, 56.523096540082975, 34.156642015731336, -2.565418646060266, 6.0433687568266805, 124.74338001996637, 309.6086429735424, 552.8550111588681, 865.9927135131392, 1206.059923680495, 1569.7240120174508, 1991.48971476816, 2321.140623742988, 2252.222547692191, 1766.5051104556173, 1195.1556110539718, 735.3555781512434, 372.3506813232931, 155.8930942199521, 117.27137354752551, 157.04097199784712, 194.70929939425992, 221.5662622311835, 262.73618793362743, 375.0505459031292, 595.6822588888086, 891.9036518511466, 1208.6194503357635, 1570.5805985404995, 1986.2516633212708, 2225.552960318674, 2044.3085628814906, 1579.4113301910488, 1127.2349798593825, 771.0182930891577, 505.00750489094963, 386.511149915867, 398.00588826824264, 418.00491453965276, 422.49106277776207, 500.4723346384991, 655.5911093492523, 842.7511802188254, 1079.230032909316, 1345.4102153753677, 1629.7293266252916, 1976.177449094525, 2222.354871640856, 2080.616426159118, 1609.5943952720186, 1121.3155860289694, 721.769048919876, 379.7186995287883, 181.5894938126022, 158.12378125969963, 168.59988553044798, 162.88455684930125, 227.020148974069, 358.2111294883599, 506.33609312227486, 711.0106985902866, 982.583238143578, 1252.1416749308296, 1547.6650815849448, 1898.8201039184519, 2056.015334980488, 1786.8496165238375, 1312.6933233970565, 944.8653243627566, 667.5772153239851, 435.84606741550294, 353.16390816729006, 403.16054059347687, 442.05959575865825, 440.4202967770827, 482.77017526509604, 592.6875411331903, 728.7125507577921, 912.5679941164308, 1166.3001026793745, 1411.2995108400005, 1635.7829798920109, 1907.2615811853877, 2070.2633843138533, 1873.4790802769244, 1419.9261628623412, 1007.8996242425081, 716.3088675849888, 502.8254508221783, 377.8370512228362, 327.3349279511368, 303.3700355026334, 287.0252160756455, 298.9043619569933, 359.0378987881229, 459.37336765099457, 609.517307940964, 803.3966598736129, 1000.1419035475246, 1261.1844262221193, 1651.7909529813664, 1984.320745920942, 1984.6983793759164, 1663.1715230066789, 1277.0137720266594, 986.632823171019, 776.252829085979, 649.2015732074733, 627.8620928468713, 639.6810938538879, 613.4274510618748, 585.173023576283, 611.5777904705951, 688.3534036663373, 802.4529596779947, 953.023907850806, 1110.2065331954893, 1296.790578074948, 1565.5844373796606, 1738.3851519526509, 1558.8914339015382, 1149.7883351165417, 820.3216003779828, 616.4691148975622, 459.14797085057404, 385.2015635544741, 417.34587375291005, 469.6192647922809, 487.1583521651516, 516.461116023819, 599.3397594870341, 725.2462387432962, 898.6776521200201, 1121.0906396765438, 1335.2807665703167, 1533.1984380701438, 1775.574630304826, 1948.2860689423874, 1820.1294231259126, 1452.8942664456838, 1119.7697798528388, 885.2321890733535, 688.6968113350256, 574.6345458773671, 556.1086661272282, 559.965373593667, 556.9191670724846, 558.5251542083056, 600.802421861007, 717.3330565509192, 832.7260129561794, 874.9708654125495, 938.5926645976796, 1126.5109813256822, 1403.6414261944333, 1624.3355421991846, 1596.6040676430464, 1304.26582889161, 967.2821501824991, 736.4441799383185, 584.821414564808, 489.22216678986837, 469.6653050621018, 499.9697944643817, 522.0845884041347, 527.9485884286566, 563.8326057011602, 658.9834944793188, 790.4517472300467, 936.7932713506489, 1102.8225765327086, 1283.7605889012225, 1495.5819069857266, 1719.2764534148187, 1770.7437333865378, 1524.064889513927, 1168.0806395525237, 916.2068357524771, 746.0018180486543, 623.7185904430498, 595.7189751338327, 614.9480488771844, 600.444583186758, 575.7288542770223, 595.6246412888589, 686.2007590114113, 850.6506372070708, 1042.5244405497592, 1220.926481500091, 1429.2220168468893, 1682.8180156627002, 1801.87883377613, 1585.9795927853777, 1182.1658732716585, 924.9273545504097, 817.1753892442283, 644.0175432689019, 443.79026868501694, 379.6924097997088, 413.05216519529233, 425.6222377509265, 420.56703071807635, 466.2695623020453, 584.563303158948, 752.0950676040628, 947.2235035287052, 1154.5019906237962, 1375.6407856150663, 1657.0760544037003, 1967.2131355983156, 2066.90923658041, 1793.105230102254, 1354.1150653166887, 1002.2064878467019, 728.4258603543883, 514.4737448719551, 425.5331676225485, 411.5989675040511, 383.76362808674276, 362.44930021546554, 399.48932817581385, 504.2191533877749, 666.2802433906669, 872.5585881197957, 1102.2498714520589, 1353.1290054427309, 1660.5583654449217, 1960.400775468741, 2002.4624215835897, 1666.7760456674437, 1195.2807157074083, 835.1440524087973, 577.8143470208765, 394.66933127644995, 329.6164018673991, 340.5923784922005, 336.7792958099956, 318.33103503189443, 348.9978063893881, 456.75813657774694, 621.5117273650342, 815.3405158528128, 1024.825579390219, 1283.4963479753405, 1602.34514365645, 1791.407231851781, 1624.5895592698157, 1214.8576259978618, 854.3689562248989, 627.3932691546098, 486.1606526219632, 432.9916944365872, 457.37512684379016, 502.81702579606747, 542.9320644331045, 604.8609290860566, 725.2495392962016, 912.7300789083291, 1140.5354018478893, 1373.7562425477279, 1644.6833523925802, 1995.9590948466885, 2247.8220843867457, 2136.0637892793543, 1761.0563823029006, 1436.5707666580627, 1220.9051635716291, 1040.0934961521891, 948.8457606819305, 978.5557315852201]"
2025-02-14 18:16:03,"[1110.5676438190035, 1140.0336633705251, 1195.0904681776917, 1283.7395771518034, 1427.6053414127555, 1609.6454647545347, 1790.6746596205921, 2026.470594753602, 2279.50135845096, 2253.855484128627, 1848.0098920424596, 1380.2518272538753, 1053.8819490170579, 790.934701880971, 601.5922052703239, 552.6004742294508, 560.9866212727635, 538.007090985552, 527.1871593543905, 587.3046177075316, 699.6527916263296, 843.6959389813894, 1028.8425515339109, 1231.9361804548166, 1452.689442940802, 1734.9062733962646, 1960.3860625361876, 1882.2463672431936, 1511.516310870558, 1125.36139465155, 871.5743482700021, 705.4142644529558, 607.8983199388473, 587.617501507317, 598.0025271524026, 605.3232493800799, 633.9070470271106, 704.5184027672693, 807.4093578034083, 946.542386477043, 1133.6464674607064, 1340.3997211101955, 1570.3999821131051, 1842.0433328039567, 1975.5772107643968, 1764.5978065642717, 1364.2372272733705, 1054.0723971689708, 858.4922282665184, 724.5601311650328, 681.5614874052005, 702.5976685719061, 710.3781173483035, 707.0666698128505, 749.1041449341395, 846.2493293036349, 983.9930875744271, 1162.745574592517, 1351.9524387098763, 1559.3474183928147, 1836.053551491788, 2028.5839083100755, 1890.4192036096435, 1503.8744381610734, 1135.9793679470745, 865.3467045606602, 674.3524024816147, 582.753610955742, 566.7372958980094, 566.9479037727842, 565.7351773668158, 592.2553349722888, 676.2718779406539, 805.2728778016162, 965.4404385273563, 1177.5493927731954, 1422.7254147215044, 1679.459053739719, 1979.215014890517, 2193.858301942818, 2078.6996554019056, 1690.46124978442, 1295.5691245038142, 963.8612580495909, 667.9071809789598, 474.6790882247617, 403.96546243695934, 372.71203530936225, 330.2219976866793, 308.6941898600645, 358.3341478417709, 484.0462298184665, 667.7649727361023, 908.7826979283554, 1176.0157985889932, 1434.2801852324974, 1741.6405437203982, 2079.845343133916, 2199.0801983607143, 1965.8334739463237, 1589.4806475191485, 1268.2079523392256, 1019.0799034524026, 872.3268218168595, 855.6387266856391, 904.5603712417109, 960.5231531902557, 1026.8592845485919, 1115.6678002844474, 1224.7680923817602, 1347.0329513007111, 1462.8946933303519, 1529.967601963659, 1531.234364000611, 1548.8877460363651, 1632.7607625687565, 1609.377435394531, 1310.3655036832013, 863.238302029537, 507.01957122516774, 339.55661182490655, 325.25113425756103, 397.25915893896, 514.9896601964357, 615.3455158669292, 635.9307347711156, 660.1280949944914, 808.2013978426177, 960.8158430057574, 960.021009055507, 975.6823967274777, 1196.3003115669019, 1486.9965017686504, 1705.723171470985, 1842.2203914474317, 1792.868664735008, 1491.0954155865643, 1107.1642984545251, 843.4568133279423, 737.9969105953378, 742.1322848736881, 800.4027039315145, 846.146669908872, 846.9035010260791, 835.5613912739744, 845.0411615089358, 898.4907033435547, 1039.4312060079358, 1254.2773974155125, 1464.6059553788523, 1632.771742641349, 1775.5699971662098, 1912.3657940378077, 1950.1633287143, 1692.4552187463232, 1184.383715799327, 741.9915765931925, 513.1435098778081, 439.01340878210317, 471.95145846785897, 534.4912439804878, 562.3504548532622, 603.7209343297199, 703.2437446163954, 848.5466042902809, 1056.9252598192277, 1322.3225856995718, 1542.9219022241655, 1682.1363797925717, 1826.6209031548283, 1957.1666939234092, 1900.8784703709464, 1574.908578794225, 1131.2854696971215, 791.63871952171, 615.4427620125066, 554.0904239864726, 571.9666747048469, 608.7287264763295, 616.0943434534943, 628.2091892806039, 694.7431376468841, 818.4060936386168, 991.6369428483214, 1212.6377819747001, 1464.1027650472029, 1772.148748614532, 2154.180194556313, 2395.5471317847932, 2216.9769464104365, 1705.3442700905125, 1166.257957619125, 739.0079558969551, 467.498052335789, 376.66760487120246, 375.7105860523666, 385.9194061870228, 434.53994270409305, 535.1261029454965, 685.0478792126241, 904.3816083223685, 1172.4714165496307, 1470.5947769504842, 1852.475213174605, 2275.1418582159718, 2458.9146917797675, 2181.200484824747, 1589.9620149209645, 993.9907146592968, 548.8237867803332, 284.8525055749891, 185.69503666923265, 176.43404304752528, 188.0448154943598, 226.28169404889127, 342.1078503889528, 552.8022174967933, 829.9868889715119, 1157.9436795302338, 1518.4369394332743, 1908.645699204412, 2334.014585966541, 2564.235280426592, 2286.766997926225, 1674.2597499248088, 1129.5489222779001, 686.917285160328, 316.5718297938006, 176.56040387944404, 230.4746655977675, 281.9422634679704, 318.1090594006879, 447.78769581755773, 697.9834195432393, 986.4752780633513, 1290.3938604815999, 1760.516892697075, 2372.292137589453, 2657.8287078545336, 2281.299846910073, 1560.611358412538, 969.8768276979873, 608.5050231642667, 430.3127438765723, 423.7382542953974, 476.4630331718778, 490.2445187225243, 528.7902490828174, 667.4735748208607, 902.8424756574527, 1215.5191359407072, 1572.1117978916461, 1977.2056534894325, 2468.124987829162, 2838.476384221967, 2693.7687926526446, 2020.9208956817615, 1233.3050356248898, 627.6246647602052, 247.5083879907529, 78.15782710648864, 52.39420389097177, 61.977080160698506, 80.89737368731767, 163.19447966248458, 339.1470501498485, 606.7204833414185, 955.8026724754188, 1337.409099280401, 1750.3148208420432, 2249.2428199720694, 2610.2865337352728, 2412.24212980345, 1706.8495047815968, 973.6257948128841, 449.307689718775, 117.32507097283337, -7.6502041304675, 18.02162181069866, 62.45535377790293, 97.47811004891412, 186.0266456577075, 375.8278766190896, 665.9839368052476, 1025.2500391106057, 1406.9022267603375, 1793.3242697873989, 2252.0660518796108, 2697.1372979239213, 2705.335643820798, 2120.842036837838, 1461.993854325101, 1145.9624487763901, 1022.5671493071169, 954.9335441170995, 999.7137704281893, 1095.1757478807954, 1179.906283099834, 1296.7072563475658]"
2025-02-14 18:16:15,"[1202.9239468823546, 1457.5194571230813, 1648.1373009514386, 1846.2874462936245, 2147.291843058359, 2361.886473700284, 2206.878519118875, 1734.5065470306172, 1204.7705393664899, 792.8698841439796, 567.3695209379378, 518.3964063135295, 559.4847157930426, 589.677791583135, 617.7513523660573, 740.6013648939403, 961.4054776147452, 1224.0205483600414, 1552.873638815461, 1928.9964677924472, 2249.58385399514, 2500.3878237553645, 2622.0760266998896, 2392.6322636824325, 1814.0185780414995, 1217.2610449935914, 809.7626319833972, 575.5959718399129, 496.7796200337567, 503.8919127539316, 488.46624450346417, 490.64588822451674, 604.1784352649959, 801.0170253019512, 1028.7411912695047, 1303.7816723683657, 1630.7868509819436, 1959.310221884974, 2234.8911680598508, 2410.9354617381778, 2382.91256200709, 2036.8127213292369, 1475.2599543724145, 983.3029978103455, 693.6811511937193, 562.6316905371924, 558.1148315356148, 617.604274344826, 642.4191968310097, 655.3492499417817, 780.4058176461588, 1021.4426986339738, 1237.162605703018, 1394.7342963895846, 1603.358177578464, 1934.5067837322179, 2363.2917984414175, 2636.565391073034, 2420.4542754060294, 1843.5386453054175, 1329.7041381776453, 984.9567122507665, 745.3911929545679, 667.5252151013842, 713.8739145106651, 748.0280865911867, 766.181242549286, 828.7002357013375, 943.923422478324, 1122.7865233908285, 1361.954756293338, 1614.7963278558132, 1895.3869008873457, 2236.819164897955, 2446.082804215527, 2232.9228593512553, 1685.8950630924242, 1180.275442902493, 856.6297182497259, 653.9309686752279, 585.8930221589683, 618.6291897544918, 634.8371297855388, 639.5761580073049, 707.1839941045621, 826.8484341242415, 983.0617468511339, 1217.3254179688197, 1514.9201994266798, 1800.63660113359, 2094.1102427715123, 2434.7172901366093, 2616.212082244685, 2365.595796263128, 1803.2843373449473, 1289.1028167389195, 940.2649343269785, 697.5781990728767, 571.0560189090966, 547.9096021524874, 550.8311799469769, 571.6132906195851, 646.3395442175271, 753.1368453903551, 871.1342764735728, 1040.799764006843, 1263.3909272429823, 1490.4212492771178, 1786.1464495476284, 2225.940384841644, 2597.894029487611, 2578.8380491616767, 2187.744386909893, 1706.5731136249847, 1297.0012981934328, 1023.2672174356925, 932.5631997287162, 902.2386546934877, 811.3283680937195, 745.0203832817103, 751.5005106399356, 776.625408218008, 844.2430677146792, 980.6095951515734, 1146.1291777109814, 1326.4477840995944, 1513.307992006204, 1708.737608771206, 1970.4159583441806, 2216.6840149609097, 2172.805928882402, 1776.3127115966006, 1308.6338934952475, 984.3194521318726, 782.8683521360279, 668.8393748439732, 649.4641597715142, 673.7147732474708, 680.5293255969509, 706.4445933897601, 814.6628009625447, 968.8055325917649, 1120.0051521897499, 1308.1447612142601, 1538.1367679869345, 1758.2967813723922, 2018.436848604092, 2322.9042034436197, 2405.208684172815, 2085.4649141298155, 1605.0844027846192, 1232.143987109142, 964.3716842479404, 791.1407741155388, 767.7111997976847, 823.8199032335858, 835.6627773436929, 815.9059389854385, 849.2926038755919, 943.1446410467247, 1069.1540401761174, 1249.0767615162, 1478.0578376005408, 1650.9726555191642, 1722.8638896057346, 1840.480311071548, 2068.643776026591, 2156.076447761931, 1893.8964765967353, 1480.7782473576071, 1220.7079333597349, 1120.3546072201962, 1040.271381069101, 963.6141031939292, 932.7698722577331, 939.5821096984615, 961.8161314010348, 1011.4770627825482, 1117.2143008000357, 1267.160025220441, 1424.1768262839576, 1579.1883644407994, 1731.8438095472186, 1908.9687913364469, 2112.8207428178507, 2142.446321390274, 1830.156645715056, 1394.7975864619095, 1054.9170981920265, 748.7092142362865, 510.00626418422473, 382.5568159705639, 229.46299943261806, 99.65327589650815, 116.86457014508483, 181.67175972109453, 301.22818588277005, 618.7329335023825, 1066.466990979312, 1501.673648621314, 1950.665113345361, 2471.7605234346147, 2963.0722836320133, 3195.7423421314224, 3085.532103938357, 2876.8506563857004, 2695.6555190241797, 2206.0086966782915, 1381.0643968323304, 876.4867742082772, 968.2807653522146, 1079.5499397252333, 749.2063174666494, 293.2497871303767, 190.68884092566168, 299.49032847613216, 186.10165677737177, -40.87113641665883, 96.28032806877354, 576.8995268953843, 998.5707057432604, 1324.9486953485036, 1660.2785377943064, 1836.6005026171686, 1778.8282162866615, 1586.368510929381, 1312.0982473470165, 1100.457214677109, 1088.2102893639494, 1181.449808798734, 1293.168978325088, 1370.790723264561, 1188.2686786313568, 758.2697196113057, 553.1386704429976, 801.4266603879196, 1232.264437364694, 1644.4238354498452, 2067.363356376763, 2450.8338419189286, 2615.2904790201233, 2496.0211111529015, 2220.1011443975226, 1897.9683235640873, 1584.3223484402495, 1420.8504039438108, 1468.100256470035, 1515.3418923990432, 1369.0454406657514, 1095.294630824453, 837.7986294268264, 681.1932341927791, 660.7061572413313, 758.4587166933429, 936.4110665711028, 1142.7791297050683, 1409.1896782711938, 1807.8744056853334, 2023.6471916730543, 1655.7738670277895, 1044.526584310725, 728.3602887615533, 637.8379836568564, 623.1943490383188, 717.7202881901292, 788.5873047864981, 770.4606171319585, 845.4554477646032, 1107.568783702347, 1451.3562281743505, 1783.552967429636, 2088.194184100167, 2311.902809008199, 2423.205424611386, 2541.1803931533127, 2738.047203362522, 2808.756710409126, 2495.788756777547, 1867.9667560962166, 1264.1229605658525, 911.0146205688703, 752.3075329868005, 620.3106081704206, 478.75888803374335, 412.78820321512933, 436.01842548377556, 488.73492965136757, 519.3075385917846, 478.59155750865943, 403.86336146760164, 435.62002043725727, 676.9305343521021, 1137.2317194400885, 1704.9614294437267, 2170.765627622615, 2361.730342605373, 2190.8485294843576, 1719.1909463547127, 1131.1933151879252]"
2025-02-14 18:16:27,"[1618.2831692940922, 1573.530892205987, 1456.8025872399458, 1220.74809787629, 939.1120519282795, 767.4854616625871, 818.6779996412668, 1057.2190814019236, 1293.0282401565728, 1451.0810491783654, 1652.608609610318, 1862.2062830425873, 1905.667580428004, 1787.726372493963, 1607.8892720194567, 1475.8946586045922, 1543.1090776084375, 1768.8965028943028, 1951.1660895304728, 2076.6702374531724, 2158.4471509203986, 2025.423152632271, 1753.489329157508, 1684.8894124221358, 1822.1641661606482, 1940.449833331195, 2133.985539207275, 2547.8203083838516, 2858.6658435412187, 2693.117703431886, 2241.7494631665813, 1848.4508477523052, 1537.8430236384, 1358.9531607825631, 1428.6990322253382, 1546.4900635039232, 1470.35195129539, 1354.6524380625067, 1443.397791168743, 1693.2495990680384, 1949.3386060627508, 2179.95407165361, 2393.5535407775023, 2548.93956838732, 2700.932736674008, 2911.283984478459, 2910.6320054162875, 2411.292272188014, 1636.2006996539753, 966.8612325651623, 487.636690997605, 172.26487669921312, 18.700910390839, -7.812448217528527, 80.08807083469128, 252.7536798825986, 451.1228168041928, 734.1683685342159, 1126.573438977767, 1432.8272705690783, 1626.6439032490216, 1991.3842002402655, 2611.9811748521192, 3257.782026078812, 3641.0870259555395, 3537.1785845924496, 2956.6487147262665, 2164.217376745508, 1474.3954983024612, 1080.044687353482, 919.0425632877952, 822.195923693978, 727.7703856268499, 568.4736136149791, 392.51242707960023, 529.5323441889609, 1088.151055855979, 1717.2968782707915, 2195.1445685333497, 2664.877529787826, 3262.0505804504487, 3991.1596407065394, 4607.864634391397, 4552.544973387912, 3763.584197158231, 2931.9206024237897, 2369.6726373786696, 1854.8196136436168, 1411.8536270254913, 1130.4404324069474, 854.0195324621803, 522.315509324075, 346.7729039917865, 402.9628829051851, 398.46850403411645, 294.0132797576539, 427.20310314265566, 708.3447658377596, 854.4795183214206, 1123.9647979993777, 1689.3178887813183, 2116.7202984775668, 2150.3360537981453, 2041.078447943908, 1957.3267357973639, 1856.6711243333555, 1773.738901889783, 1786.3304281274425, 1870.575435440105, 1945.1343950090998, 1980.2180655871512, 2015.370944968935, 2082.42975654534, 2179.1905149618806, 2309.8108619464474, 2433.5403224252877, 2485.7103137395434, 2571.97855336682, 2800.1425752369087, 2892.6186833217416, 2527.0967502949006, 1894.9637120672783, 1368.3354661198487, 1018.8109484589752, 816.5910388231417, 773.0288250731634, 764.8663475142686, 674.2676252261658, 614.4351190582108, 715.5780273419496, 913.3912453465855, 1120.6061494539067, 1354.1522882922945, 1622.4832212845527, 1920.68913097111, 2258.9388479331983, 2463.809602456198, 2269.0191221858213, 1775.3481479994575, 1335.5631549376546, 1068.209688263557, 945.2520312043555, 990.624396788664, 1112.7813919735995, 1166.188083658873, 1195.6691467721707, 1323.0335099298668, 1566.8115369410057, 1897.9182946360322, 2286.6902094048605, 2695.9028963149276, 3098.5320302095793, 3454.4233694591453, 3662.44836560292, 3580.488512634349, 3170.109607434353, 2590.5620757994775, 2023.8414227889743, 1535.3490170550806, 1202.5232627002545, 1102.8863131392607, 1138.6582401513344, 1163.1410602983758, 1204.735229177436, 1340.2726463111226, 1534.5780755915957, 1766.324117554602, 2061.11319389657, 2367.1373022444036, 2644.1360199644964, 2920.842973009976, 3102.576293597883, 2931.100741547886, 2265.486460503953, 1388.0919656753751, 761.2078824703028, 449.6702492269583, 304.80704326867135, 345.199176392425, 408.94045328060156, 232.3748893633874, 18.40382096880853, 126.21513613537854, 461.68210321767765, 709.530388138477, 876.834749170194, 1189.723513219326, 1659.8461652905803, 2143.3519258476263, 2501.5085388589323, 2569.12582686865, 2374.1854412297134, 2166.2812683945267, 2076.541687413559, 2091.215439653863, 2189.189916558291, 2310.1089347108477, 2367.090731073217, 2303.3859133723868, 2161.194762870468, 2082.5906643447443, 2109.546694335775, 2140.4379079277714, 2183.1803215903437, 2376.387875987599, 2638.0835260190006, 2662.7909618440817, 2418.555343510351, 2144.9501094853103, 1897.8614346770917, 1623.479528362948, 1400.3006602563928, 1280.0772200264405, 1193.748817689203, 1104.1591718172735, 1037.6024725218429, 993.7111616788428, 990.3878614947022, 1091.466634010071, 1296.874926265708, 1566.190416022209, 1890.8342889878757, 2184.9182140034122, 2271.506342261578, 2094.5706023243433, 1795.6289480534133, 1538.460197718857, 1384.0111066393122, 1326.8875580156352, 1341.0284102109513, 1399.7498004287131, 1484.8858668741655, 1583.485935991457, 1712.3853772254884, 1886.3783469476805, 2028.146370942619, 2052.0058910228163, 2044.217507883922, 2138.6111681449684, 2230.0852844552574, 2108.5457074146257, 1811.0214087782429, 1525.668899504791, 1314.7557472777787, 1182.4822377122418, 1169.7617030350275, 1241.8499416781444, 1303.4062069220477, 1341.408643409215, 1411.8444984460243, 1545.638243880128, 1730.7562192984494, 1943.4025120990245, 2195.6060474223605, 2499.6303440208967, 2745.0761028612783, 2736.089535272508, 2412.842237279545, 1945.7243616374888, 1555.323508071817, 1314.4002026931048, 1196.8832749264332, 1173.1270611860023, 1185.8629587555392, 1207.4251306653518, 1276.54677371144, 1401.6429936592172, 1582.6934983765689, 1829.2949105381533, 2071.041336083679, 2279.0336709363974, 2538.6479112960005, 2776.10141259573, 2749.743550903707, 2424.2582997193967, 1991.387227230406, 1596.1417645560664, 1304.5804840882097, 1140.4398747615714, 1052.1173462138013, 997.5383362628471, 986.8925211852576, 1015.0628350213748, 1081.3434534911512, 1217.4655146373093, 1430.8813736777952, 1674.2820188284272, 1907.138152438856, 2164.808466953504, 2444.856208824578, 2579.228709265648, 2435.3591886882787, 2114.774356601779, 1800.882443220519, 1596.5990411380574, 1532.534357010371, 1582.8660426416575, 1685.7330895007665, 1795.3067533175567]"
2025-02-14 18:16:39,"[618.5780086023035, 677.4540403429204, 778.4666521027349, 909.4139977586868, 1060.046136301615, 1264.7127624966615, 1458.5137100216457, 1484.5138211336061, 1341.058511059478, 1109.4784786663874, 787.9202497543512, 454.32203532739845, 246.87095620696596, 170.36575031615166, 169.18801289814724, 212.01821811600507, 272.5332298427038, 352.9512585876754, 462.8832736290795, 606.0608874121007, 805.2075542774407, 1029.4862450403868, 1184.5691053358094, 1237.249897072154, 1175.900886641298, 949.6979039962544, 620.0627979427363, 341.67897539359075, 174.76014229721017, 111.73197219546074, 136.80524967432655, 192.53853382878088, 234.52747701392514, 289.02417567196636, 411.4087085029276, 591.0244498009822, 714.6632057011736, 747.5413747394705, 841.0055802623206, 1022.916817059387, 1057.8917600839136, 852.7945915734716, 592.1488541129727, 399.5887687915499, 270.8256322499397, 223.45576603449018, 262.5602587085629, 340.23467632398024, 408.6282802528025, 469.8372740111588, 570.3512225273147, 705.3551183353309, 827.1459314336175, 966.7376217262685, 1110.4227547226792, 1088.939460591458, 864.072568717959, 620.1456498132306, 454.3706518860176, 346.72400039905375, 324.67948028827846, 373.53999673426733, 401.02998979302254, 398.97589914713467, 442.15915672835183, 544.2272721416366, 658.3650401629842, 786.8899865258479, 967.1260336028477, 1125.7954644338247, 1098.7055804973227, 866.6461147472359, 592.4613835825252, 406.61637370151215, 324.8316317780158, 312.81638119746975, 331.3076717703865, 354.35758780195704, 373.4375172746256, 415.27945937927177, 513.8043513102873, 668.6547002459355, 883.6242829785031, 1103.8007332714665, 1144.9317559805772, 919.2082879363534, 598.1532102634616, 368.66074311969874, 244.27351546786747, 198.42436529180668, 227.91397563832578, 289.80149688873155, 360.9068480955349, 471.4116495198693, 619.9697599359276, 779.1456325325291, 980.0498256633515, 1248.1959536602917, 1445.9659588490692, 1386.3631660059577, 1100.5169861264544, 755.355242964346, 431.90288874136934, 177.3011706045288, 52.2588538453972, 40.5103682778074, 82.62619234583644, 152.73308235234697, 249.67569494605436, 398.1966286678054, 604.3942497255069, 813.8703724129298, 1024.0743565414637, 1284.3749639962966, 1489.9111951082828, 1442.8347113007874, 1140.0931941917963, 754.0388905556327, 417.43857713575363, 180.5259051185293, 57.74117255074145, 27.325470507899468, 32.04661976410705, 36.5105579847434, 73.71808220718697, 171.89469110564943, 295.06302592116305, 441.15029535052986, 648.5964247778284, 887.7521265901526, 1133.6429274668967, 1365.6704408294759, 1419.8559392875454, 1178.5752796447864, 796.0971077102345, 481.7838037107297, 291.14100818611496, 204.03146820582117, 193.10304246736246, 214.43982958303621, 234.80860687650414, 262.4588851813265, 318.6272619362367, 409.49581584345265, 547.2378021584758, 724.2010105493043, 903.9738014053821, 1102.2375773357744, 1305.218715907888, 1344.6789810180792, 1124.5309946548552, 812.3021571155022, 576.3190530453455, 410.3132233105239, 318.21026695038563, 330.49333570214884, 370.5322342449373, 364.4499022424176, 355.1650731384973, 406.4320771092386, 512.8641947446578, 632.6165340501974, 779.2655163659874, 988.3880934262178, 1150.1019027955022, 1083.292452335322, 818.0948579512765, 545.9164956284923, 351.5301712948485, 227.2288882850126, 180.32757602287904, 186.0418518124602, 204.00458631007984, 243.1331064853315, 305.7006195199936, 372.43825573290525, 475.86755619821554, 643.8112342148196, 821.9992494977748, 988.4450921058217, 1205.6261845629726, 1421.959007967805, 1423.4738938052776, 1148.5015434007732, 803.8197012288041, 550.5734570902896, 371.9780078482899, 253.88681367140464, 215.268401975894, 222.32590842023205, 225.63290677413988, 219.40393292986056, 239.17066578894708, 323.7740175063099, 462.0979564249865, 611.7724907303362, 762.2257188999599, 943.806036695885, 1179.7558351816276, 1370.30156743492, 1320.3884232812795, 1024.8641787444408, 699.9081069169858, 461.1682367741581, 282.4638347347851, 182.64773103508367, 163.81771883466467, 149.26165301649115, 119.08388719535867, 125.70520238523136, 186.64949028906227, 275.4935970314681, 379.9096238515047, 521.8375561836781, 704.232765660435, 899.1579071213326, 1125.7949711861447, 1355.2366926300099, 1391.7684585701884, 1147.5445727577235, 819.111303911868, 572.5741020524721, 396.3410226502044, 293.0971000833891, 287.6188580128645, 320.9051626722631, 332.1382283809491, 339.99450584024027, 372.3227679186806, 429.1458686367429, 522.755123599705, 662.3186261038221, 823.6132109126606, 1011.3277949442307, 1252.491168175008, 1418.6999828169446, 1293.4380747662958, 922.5200782461893, 563.0740155113538, 320.83278063926605, 164.74272989894257, 102.18507710518753, 110.2800739380632, 110.76952401495504, 92.16993201123717, 112.0094421536175, 194.19551718146676, 321.3968165008035, 493.79231489216886, 690.7892080189014, 872.7008957834846, 1092.6778310457917, 1363.159858988405, 1536.398553057104, 1557.2977786978668, 1449.6001370691695, 1145.440489153173, 720.3287876016215, 380.9217376014198, 169.51991814986656, 49.47402620986918, 19.35936302933601, 22.824630227018474, 4.347596452612379, -1.845560887291299, 47.812168701748874, 145.03025818114696, 282.65636008900753, 472.8655151715764, 692.5634267141705, 897.4972177788296, 1127.868048408323, 1438.7436757424134, 1646.4897824784637, 1478.0798144995256, 1031.2587025917123, 624.1663463831387, 330.9712030033719, 107.10425725748917, 7.530147373804198, 13.83500203731694, 27.820258124184306, 40.4112332126773, 66.1046524694234, 104.88789341007231, 211.2474446862728, 388.2394302110237, 585.4932012050501, 838.820340353129, 1149.114392372774, 1453.1308712291966, 1772.0032315770045, 1987.952959789973, 1818.3753567377066, 1341.9069768327458, 958.1344164245356, 799.4672865314426, 728.8205875610337, 667.0702743888098]"
2025-02-14 18:16:50,"[1959.731904836404, 1894.774082848664, 1868.5710125206015, 1907.5382841980404, 1993.6752119434711, 2106.273770038008, 2272.6082198438708, 2514.480078405391, 2827.448348895038, 3145.663429689099, 3239.9420286173718, 2940.096052502236, 2440.060206313474, 2030.0402415196559, 1761.765537835689, 1606.1109533493673, 1564.6672263618543, 1557.3093874530387, 1509.1207745877118, 1476.5251161659467, 1523.2344096656484, 1634.668214264654, 1804.8125719408306, 2028.6885146092652, 2255.9237821958627, 2493.414364625637, 2802.2460419784356, 3075.1881900660237, 3039.1888813029896, 2607.612114339774, 2052.0121144857862, 1696.4640574681462, 1557.42787702769, 1465.7551839392358, 1385.6576637224039, 1356.6112362280828, 1352.6933701476717, 1370.0445365766432, 1441.0970229556992, 1565.8170091072757, 1736.8996459417144, 1966.9815365252543, 2237.2918040356994, 2507.875892339247, 2829.175423590492, 3184.926859322621, 3271.0460156799836, 2904.922212370214, 2384.946360161256, 2006.2742298962642, 1732.5569551840897, 1524.7741579109506, 1431.1859233356008, 1404.5262634902642, 1371.4025616099777, 1343.5563260423535, 1375.8324204367914, 1489.2677151556652, 1644.1294287884834, 1820.5839479180497, 2046.4904821685068, 2294.6286710339086, 2532.8890435334706, 2831.6310263181604, 3132.357127791226, 3129.2775455877263, 2740.7121037048228, 2279.9814295539427, 1940.574968812941, 1678.3952831215774, 1514.9511474940257, 1458.2693597256825, 1411.5938846184906, 1352.788027188973, 1338.4882855199005, 1400.6021756573014, 1540.559068323038, 1718.3535970890994, 1895.944015146964, 2100.027593699108, 2342.6212317783766, 2592.158672482136, 2863.9423703684615, 3098.312931245149, 3059.593453822801, 2681.731361217362, 2239.92738597442, 1933.6285057925093, 1706.5389872662415, 1550.4456634297958, 1522.85475636372, 1530.278913362918, 1483.3157918126008, 1477.5981635476408, 1579.9068291052238, 1712.7485646718496, 1846.598445162313, 2030.4932736917633, 2246.256022754717, 2465.899753724448, 2734.2214046287986, 2948.760517949539, 2838.378845803856, 2412.4187625468435, 2001.0345702967945, 1760.48594921529, 1613.6828319138351, 1544.9393917554553, 1559.3619750119442, 1567.64293204729, 1537.1762504180992, 1551.9617614516098, 1644.2073293759365, 1766.841196806281, 1924.1133656827676, 2132.1584771335674, 2348.4014774139223, 2596.560613150427, 2888.7933744053494, 2977.7097795930313, 2660.4776658781643, 2173.2615701817144, 1808.7540700887776, 1555.7098358654227, 1376.2451182284804, 1324.342303674687, 1350.0868230919227, 1350.8951130963605, 1341.8186629051283, 1404.394264662189, 1545.3410712358077, 1706.6793258682335, 1893.5267323967787, 2149.3508675990174, 2436.054446154615, 2737.2546650151526, 3070.970851648308, 3251.361563176556, 3066.5059406535192, 2654.472033666732, 2280.8853981921097, 2012.1047060435826, 1846.6473692116642, 1817.3368755387319, 1872.2781442316705, 1913.8424874452605, 1945.7574523384835, 2030.6598509065388, 2187.844781515027, 2385.646057350737, 2559.89350701734, 2674.8317594370446, 2733.7613597322857, 2746.0312523240123, 2763.6234256946364, 2756.0044914718997, 2530.5361819013947, 2063.370974880714, 1614.2808702312861, 1380.726225093524, 1351.6172925478527, 1383.459484854443, 1303.9356126399243, 1120.7812292935414, 990.2363632711115, 941.4678764608448, 878.1567397237338, 778.1281470743322, 728.4122710596653, 773.308795615796, 807.8304551034621, 838.052356331227, 1116.6374288518423, 1554.5084856009644, 1681.2165329563966, 1614.8487815394292, 1909.0645610411564, 2449.635772432822, 2679.6978487614865, 2498.814130730551, 2254.253136993332, 2243.1739292100024, 2521.503060094371, 3082.977161359996, 3804.2019992220785, 4219.531021635994, 4049.419952807295, 3708.4180916854366, 3623.4387047303408, 3678.060286981098, 3738.901715405341, 3885.551638893222, 3953.36668575579, 3636.3893396174617, 2956.068479056843, 2159.660759342384, 1479.1995127561827, 1040.6144680836276, 788.6739063670152, 645.8148464235228, 566.0106259717884, 436.9244405541274, 246.92655914646002, 87.09302511367719, -14.134620856594665, 33.29699275613939, 268.67299789276603, 489.381755310274, 637.145767470927, 913.0965512450798, 1412.3554765947138, 1995.2605981549152, 2275.072589689014, 2030.2406965111954, 1663.3881011507165, 1601.180302710634, 1769.7891983532966, 2074.23115038629, 2573.981025989505, 3069.4767748613554, 3238.564495126662, 3166.0216255154673, 3175.5091246352185, 3273.7386773958838, 3257.0961544159472, 3147.8791415491214, 3085.1220311852567, 3088.8981385604516, 3242.077889073423, 3584.0776931851424, 3722.681493805748, 3272.8422893484944, 2484.963312741489, 1780.0412230736063, 1240.1984103683153, 914.9939011345368, 858.0794683816614, 879.687673061653, 812.6278373524244, 735.1565785619466, 744.0789646043931, 822.7925649400524, 976.0046997751033, 1281.076873294748, 1713.6900165325967, 2130.687038491977, 2558.1449339597057, 3094.2474767133826, 3445.8457086340313, 3214.9897418513647, 2564.1745586239294, 1940.6506117680626, 1504.9956867264943, 1241.1213431395317, 1123.6635827184505, 1072.2700988446684, 1055.5755997315878, 1104.9596135728934, 1214.7635608804985, 1395.232606962606, 1666.7383357204249, 1990.6136864176888, 2324.747538838394, 2663.2444995305814, 3091.521549833865, 3725.007321608075, 4293.064969143704, 4220.599591260858, 3511.3566821183135, 2762.0536456024565, 2212.2994149668816, 1755.722105906571, 1472.3786060023838, 1387.0341938234512, 1338.5844664519043, 1271.2728583989037, 1222.8383671218141, 1272.6195690434583, 1525.458914390042, 1900.0679869840196, 2189.2277786858685, 2328.103101127697, 2369.410196920442, 2372.275942121793, 2344.2256867635447, 2175.1316349249205, 1825.3291754983109, 1527.516468908743, 1464.6510073747331, 1467.2218957723885, 1337.4559529525486, 1107.375111476928, 878.2400832182466, 760.1590861772615, 831.3220397960263, 1030.3324875886663, 1293.9086291907847, 1662.904795134721, 2136.371120239263]"
2025-02-14 18:17:02,"[2126.771841366846, 2512.5079538029727, 2737.1485597888905, 2312.989336041017, 1329.1922403008102, 502.2633120868377, 119.93104436897283, -0.3979244853594537, 104.35417934307361, 394.492227163146, 646.0622717292563, 819.7126149850005, 1012.9859362609636, 1126.4075689966442, 1122.02096399034, 1217.3917494029815, 1499.2069422942116, 1824.1359041989263, 2201.912514800819, 2748.258293247453, 3205.693837902224, 3110.973029768238, 2523.710039522131, 2022.8982471582794, 1897.7654207921776, 1883.1570565377874, 1777.8530345934516, 1684.9972901218998, 1612.1717931225828, 1496.8796678854574, 1453.4987028336286, 1537.1701371342392, 1688.8941492596578, 1987.4339355116426, 2439.6718881535135, 2863.4082994141986, 3259.252321760052, 3660.810128310978, 3749.173303818325, 3312.2167054051115, 2673.5932176570823, 2201.8494000922938, 1941.9412392195063, 1854.6994137755903, 1871.2289600347185, 1834.7274941740857, 1717.1525372932742, 1638.5958507243035, 1630.3988320283693, 1659.0025474976117, 1761.2529580667012, 1956.1715020015854, 2199.9055600700963, 2491.341567406658, 2850.7090812783313, 3147.5945625915456, 3053.9801024610597, 2426.360555723167, 1649.11758690824, 1137.052791253177, 826.8073406079666, 597.7316455365819, 540.1529733961681, 597.6159232280368, 623.232727679323, 675.5755564459869, 835.8367876542243, 1055.8173775717937, 1318.9696215380902, 1662.2487042229657, 2070.0396603584104, 2514.5546798653168, 3014.5489720049914, 3456.48436681531, 3535.585329737351, 3190.611517792381, 2760.6582621878842, 2482.1298682590905, 2337.717318836067, 2361.5229522030922, 2497.01369077415, 2426.8277602153403, 2055.251245189398, 1718.1663340860382, 1633.9009942617304, 1691.9067492455727, 1824.2267989969807, 2056.996799955319, 2314.049479027215, 2576.0753297995334, 2922.85114125682, 3153.4364260228413, 2925.334711291086, 2341.7114652319633, 1781.4383233693293, 1374.012647278112, 1091.5866412289156, 950.3167919148602, 878.8901444176968, 700.805781368636, 353.1602569849156, 27.678151867794895, 0.9373925796048752, 306.8677832326089, 790.1840505997486, 1405.3529422266745, 2145.4637270994785, 2946.502296834888, 3730.6789690088312, 4172.231601158141, 3915.418103854183, 3241.7850940474773, 2730.5914595466884, 2452.6702260344437, 2210.8665610989156, 2132.3102286933254, 2262.557583338161, 2048.9565252273273, 1327.4988958858942, 945.1606843613074, 1231.6276663708802, 1551.8119737359652, 1796.9899027008091, 2254.616074738834, 2740.1524291439346, 3165.6063002210612, 3570.681254197464, 3592.7003752037535, 3031.210580156271, 2182.127560837705, 1346.2029705701011, 757.9313805068641, 581.8733068362847, 574.5781175616492, 417.43004560919826, 316.993371304972, 551.7672296325916, 933.5545081283942, 1271.6576238215011, 1654.5743424796842, 2086.6769458077447, 2401.3518251875066, 2540.8545521462893, 2698.974689333713, 3015.9724410984563, 3262.595099152688, 3207.7267948782437, 2989.3103425344893, 2786.7047175030166, 2598.7410468200655, 2463.948433450544, 2433.1896995574007, 2379.065096603038, 2169.7010198261814, 1873.384619396636, 1613.349025012686, 1445.3403978655715, 1452.6386988495174, 1684.1452267142831, 2000.8642361353134, 2299.3503677220037, 2646.7305757234453, 2879.419300476728, 2638.42979932866, 1999.123135055901, 1417.8433392470313, 1094.6715641533488, 890.3796929249129, 732.2964820271018, 705.5317943667862, 803.6008403629955, 931.9224150755404, 1108.2207318593385, 1415.9465110620322, 1826.391232629631, 2194.0123805156522, 2439.0556612035753, 2622.4884661190044, 2831.4855804600575, 3136.923182910452, 3453.53026794648, 3428.3204522246297, 2912.271140205232, 2254.2071732431864, 1752.8655648066622, 1387.0971864395353, 1156.8050104097006, 1077.9221610658922, 1047.9805369534752, 1042.870102273266, 1081.349338477229, 1126.3625733305767, 1274.5408588222713, 1619.2139859217077, 2092.0356598678172, 2674.561370971831, 3291.673442109169, 3748.3414090528613, 3983.6134955840016, 3897.5381303747363, 3335.2796697219683, 2525.7750954097196, 1853.630017941508, 1404.948858410368, 1164.5408554243863, 1072.9008099414275, 924.5914626942972, 730.8334630382642, 754.5501077611693, 1005.6538780895828, 1269.4827659819616, 1532.9164200836872, 1887.095326463118, 2272.453968696661, 2667.296118079645, 3115.0827113728797, 3397.3665481702933, 3227.1928438472996, 2732.149707325882, 2239.6736277799573, 1850.9617357398565, 1571.752229885534, 1460.0864387852362, 1444.4221134176046, 1368.1606359381767, 1266.2352309127282, 1278.1326706096938, 1388.8125633548977, 1540.6359907886945, 1770.9794385322316, 2077.41237576669, 2447.5599944541377, 2929.7003424227496, 3359.6525986002775, 3360.135941760194, 2873.9931018064685, 2262.6979027666894, 1780.9398477699044, 1407.5928565650224, 1152.316501130793, 1087.9624341728468, 1133.7466192719353, 1149.7306134998485, 1162.0303352326025, 1255.7964250083282, 1416.5762271259332, 1642.116303428529, 1963.4981927569327, 2303.30161061506, 2638.0439860217966, 3090.2013597896657, 3467.4469666544774, 3346.443857063277, 2831.8004573898697, 2308.6092987008874, 1793.2717329560821, 1302.2997207902092, 1055.2193986789157, 1050.1941814517697, 1097.6956756465238, 1106.6442034535717, 1110.5452724391062, 1197.5181368378526, 1402.7120314603362, 1683.7956396819238, 2009.3983298590645, 2351.0899838414553, 2698.140213875063, 3135.025997153163, 3622.212949535179, 3803.0451483004117, 3442.8133276553726, 2804.84840433223, 2258.7534086110727, 1887.5284365482075, 1625.87498148482, 1443.943557488566, 1316.649501222029, 1186.6265849588224, 1078.4981634115743, 1116.5662064125122, 1281.5442158252251, 1427.3696638304073, 1582.349156103107, 1858.0309071649174, 2250.875749614036, 2741.0100859295853, 3142.099165044695, 3045.637612068699, 2437.161517561231, 1809.0036315132797, 1425.3839701567376, 1201.9052961602906, 1148.5838845061407, 1299.0097794553358, 1506.8499299203006, 1659.144679408553, 1827.7854257525478, 2077.165917141176]"
2025-02-14 18:17:14,"[952.4041885208578, 1173.0029918267744, 1433.197201574647, 1724.9630746631026, 2081.0632380892603, 2392.6006197499837, 2302.941962202737, 1717.0643736778354, 1033.2075596161508, 557.89210963713, 254.91904918520913, 103.31348828310774, 113.65111616596664, 168.31741387600448, 192.4684185037571, 237.5154721805003, 345.4315499934388, 519.5641847071098, 773.5394846666097, 1104.0276776691658, 1454.337851132253, 1817.8348312572994, 2233.8471645890054, 2500.072126129907, 2287.928209176624, 1688.2408252293453, 1101.6595401033658, 697.1166986507936, 458.5622494107421, 400.8480203579704, 453.099231383846, 493.5604495184524, 509.22747640125044, 538.2661841608056, 610.1443367270715, 761.8779060762074, 996.2138800188019, 1253.7517438154855, 1509.471441671279, 1845.2810459834236, 2198.1528575603666, 2213.074814248522, 1742.374177212225, 1129.4176138726095, 685.7366164818759, 395.3122038558437, 217.27686073554582, 183.42391823102503, 232.08319991014605, 259.2859756069872, 281.2332189288718, 375.820348885817, 537.74338860569, 749.7232836634911, 1036.420348550951, 1328.882844916539, 1588.0435680237697, 1948.5203583973298, 2305.110915866235, 2237.273778090624, 1727.5493328732928, 1226.6573190796855, 919.5059308923067, 686.6369036834799, 548.9732912644531, 551.4470708566822, 580.0192190772775, 583.520897816636, 636.8715020843296, 771.7276071224031, 962.4838074026628, 1189.6399332709873, 1442.0509163550992, 1692.585846917701, 1913.870035713814, 2162.3746754674544, 2434.108363410769, 2446.581412603893, 2013.4343969945699, 1421.086402576114, 977.8601144100652, 644.0887728433163, 376.0824008745327, 278.46086606691415, 294.83676377341556, 254.29933321448254, 218.69540660942755, 313.58753131724416, 411.87553442444664, 411.4201934953078, 446.72943584530356, 599.4984040472611, 826.5260847120164, 1130.6741140712322, 1457.2921266826786, 1575.9170938273364, 1331.7269480802547, 888.4984546877913, 496.93610908874336, 228.01304810865452, 110.6834358920189, 169.42715299332053, 274.7249824959014, 313.40895135246717, 372.6219226060349, 561.3519793304288, 857.6254837285933, 1186.3483973535526, 1511.214349093617, 1822.5857971593693, 2137.045715730522, 2496.584486526537, 2773.8810454885975, 2678.986456780148, 2210.2918120703853, 1695.5644828799245, 1300.3249552228822, 969.3131134893734, 728.935841047598, 628.5572029872453, 562.2343777916451, 452.54699066026103, 405.5753604299682, 486.5144702013997, 614.4368103172885, 762.0944675885651, 966.967508807177, 1210.464149938243, 1551.55491922991, 2117.2389146287155, 2685.6983509334113, 2743.4502445431535, 2172.466634872048, 1352.6797005392013, 672.1522444171361, 298.49690478131356, 127.77401009652885, -0.09067265850717376, 0.21359800762434134, 163.49313527196, 305.36395082691706, 382.6546361951739, 451.4166361008114, 480.76130210694225, 536.7823364963322, 712.4678427575998, 916.0115999860377, 1092.0626103745965, 1361.3409154199994, 1709.6557240432198, 1883.4324905180015, 1751.6607960991553, 1475.677083864992, 1227.768737538073, 1036.4115115998372, 933.6126727230906, 939.8191680367662, 955.5227923819613, 904.6421841481788, 827.6536559766729, 752.754212801728, 682.8990639700132, 645.3005951108432, 616.249359479393, 577.6562538488145, 654.1060131126351, 902.5498971833861, 1101.2128135142784, 1091.3983957193977, 1025.4021070151664, 1014.0890220950512, 972.3958555071893, 901.6852551161157, 900.6803379276174, 963.4954451377026, 1027.2571315982173, 1088.0014981333088, 1156.253614839809, 1238.0456883727618, 1386.6353992024492, 1575.51393820218, 1665.6574457616236, 1725.3577204750295, 1906.619259447219, 1981.8994571133157, 1703.1160366717493, 1266.2848157747198, 898.3071304159803, 598.3960765629236, 409.3954250534048, 376.88379603356475, 397.39539529016133, 403.05004982692265, 447.54501456308014, 551.6219933681264, 691.2427611716805, 890.124897878874, 1151.3601263419926, 1409.3882811859648, 1678.2012331766894, 2027.2407925721532, 2313.575788915763, 2281.2041193333152, 1943.1414993645626, 1507.4586765907106, 1078.61169550746, 689.6590012942382, 401.01849844324204, 241.63696362235237, 175.87771927655524, 160.85641411776305, 198.97739942470855, 307.046299037209, 471.7686930574322, 688.6886489103156, 958.8882903591056, 1230.8141521095595, 1496.026932761131, 1775.5156761145886, 1895.5842927012304, 1685.13199008479, 1306.2270294567234, 981.0372879022551, 732.8624813682525, 565.0323029238417, 509.3798569989244, 526.9987440007025, 557.0916775113556, 581.5907212710554, 616.2657335751067, 696.0451569764622, 846.2312007886624, 1043.7815821951003, 1239.645242606032, 1433.1527977498167, 1669.068519936889, 1902.7808036600532, 1948.650765686522, 1703.4932254757275, 1321.4378924871812, 1012.3542995614301, 816.8890623112111, 688.925306847396, 621.3005474686719, 608.775588721958, 608.0536085421661, 595.1655991699095, 605.2471511353253, 676.1961566551545, 807.7677694995455, 987.8708632100066, 1192.6503042258782, 1416.801731590791, 1687.619750786319, 1892.9713591044583, 1811.2268005109925, 1477.2451410605768, 1139.2981394610224, 880.6844944195225, 678.342900878697, 584.7154121653689, 587.1646052903707, 592.7809128486948, 588.9235735568789, 585.5092350525215, 598.1253530180788, 755.3407567626525, 1079.734504115569, 1370.4603364993113, 1577.949645986171, 1806.6210084014078, 1917.9856743554878, 1713.2584985442418, 1312.9331182059032, 941.2667501368018, 654.9029725866243, 471.0637173357062, 425.7522895647385, 451.19042755318446, 456.4066187107711, 475.88316555092183, 565.9169687719982, 706.0227807196055, 880.3240927169952, 1086.5136371355252, 1326.248715636228, 1634.1246234641412, 1918.6086614479016, 1934.4933145203518, 1634.932581224953, 1255.2497843100332, 973.6590480382156, 812.4283302467927, 770.8676693934126, 804.8894341809879, 840.0912857386177, 883.2227925265316, 980.9210126902385, 1125.170306275677]"
2025-02-14 18:17:26,"[809.0700793945392, 1010.5045365792964, 1212.7988966364708, 1461.8970652606256, 1671.2041778717376, 1617.1895826529344, 1281.321072835401, 900.6962115305225, 631.403122901018, 470.1857459773867, 397.33576449819714, 381.7752673807314, 386.33403064273153, 415.5827140430221, 466.9813475459791, 527.2084921675352, 643.9342766282466, 838.2789451478534, 1034.5669253564413, 1236.9797436455651, 1505.1963139414102, 1670.5749653735452, 1500.907784715335, 1104.5670815202989, 758.8293886625548, 545.1758950776084, 432.74438157913687, 415.4965503607765, 441.6044523096389, 455.97013075180627, 482.0757390925337, 544.9316277953394, 642.6413904237654, 795.6984013691775, 998.2796417106542, 1215.8343718811757, 1477.0934371677279, 1749.5496392483053, 1793.1178304387745, 1474.8947100347195, 1030.4410497638141, 704.880118255305, 485.6682307630564, 345.9210845968755, 321.4572799437842, 343.7922140173722, 339.7193877025928, 360.7796594076059, 440.56556844169376, 547.3699156664394, 699.9070828360257, 920.2599432854332, 1167.7196532697665, 1435.1207263349243, 1703.3618374987004, 1790.9226650859705, 1547.7936079485257, 1117.4984579031634, 732.2425570431851, 450.57961101731814, 267.6329028323038, 206.81020972880037, 219.24993127122661, 221.31968189657073, 236.93399243059685, 327.8102495106092, 469.68410594700583, 657.2972964324433, 924.4735836545849, 1195.0153928692685, 1429.8824812638636, 1764.0939423276182, 2137.836133524377, 2203.1817410408967, 1883.794999552147, 1422.7776817685062, 894.798090852688, 363.8028789127617, 88.6321652155616, 84.15039727258568, 101.84064844098111, 73.04047087213439, 81.8022878157334, 153.21051180875372, 277.52648299517364, 427.8273166343995, 609.4307700183242, 920.0436574328812, 1341.2625054270402, 1718.5647144622621, 2028.8199983069273, 2154.2970270252963, 1812.2601996701833, 1167.276044348018, 683.2154211113902, 434.31178401855317, 303.96458195724256, 285.87083690105317, 306.40488373479695, 293.09373104125893, 280.91445925923153, 290.8750582193728, 330.30522166153787, 430.95020235646587, 613.8940240866317, 861.1157193646677, 1098.7295501356143, 1346.6651183414729, 1726.693573545688, 2058.856816062722, 1965.295264541226, 1503.721217625775, 1032.6551544879462, 669.7530792431562, 388.4340574723788, 239.68924659862046, 217.90511467234626, 221.00957859707694, 220.1058697590538, 276.340932710629, 398.2977413988712, 536.3566466197838, 699.4551638902898, 936.2991896164882, 1217.5458460633454, 1491.4790279869349, 1799.5909631958457, 2106.145295402761, 2154.58970812306, 1807.5083197217978, 1289.027620358007, 837.8847065852343, 479.7254940436952, 222.10315175322035, 93.62201700207743, 41.89413874180491, 6.597895553814396, -2.8008160613057953, 53.39273215199512, 186.951746198892, 377.1813078019381, 610.0577957526804, 867.9686835053761, 1120.1747437476092, 1397.1102359773777, 1734.0122172993551, 1974.006573596435, 1883.0950041082704, 1494.8120483766963, 1059.3289254162746, 719.4754034478715, 484.21710693484965, 365.50458543782565, 342.80797297765594, 339.12528961203043, 324.23824908815607, 337.6846173978331, 413.13700895536044, 539.9438486058084, 700.9248980942166, 903.7922501964141, 1128.2946143718002, 1355.5651786786016, 1624.2544225719753, 1838.3788074112667, 1754.833039663164, 1369.6500044128184, 938.7836867109838, 607.427402872288, 375.1208249312817, 258.3710032570607, 240.01187723670478, 233.45054014000448, 214.76317183932315, 244.96299446113937, 346.21619472907844, 490.42496129582923, 672.4096584147552, 899.2586900951236, 1149.4717130035153, 1414.8966026087082, 1728.0988935743258, 2014.7842124768738, 2049.669405656864, 1752.3487988816541, 1307.4321247239604, 892.827606152556, 567.055461361473, 370.8803780170468, 297.5687069993769, 269.70951990930143, 244.8089838482358, 241.6059358371831, 278.12472208527845, 362.9269002891649, 501.38640079830736, 684.1303724288484, 897.4300403642859, 1130.9197910090822, 1400.477122716727, 1700.0957905074763, 1859.1146493337478, 1688.4034815799955, 1285.7782544441777, 894.0417410442377, 605.1795754550501, 401.3442562943985, 266.61457113594827, 195.31006600971352, 185.17145966895362, 203.99746873736376, 216.2550052940877, 268.61566023193507, 424.3343002841197, 636.7415794966231, 839.8215425865263, 1050.3008555312033, 1290.0076377751197, 1576.3423101545693, 1867.0924264197618, 1939.3198695330261, 1662.1001689547688, 1236.1298268883847, 859.9640576737601, 553.1099608062262, 368.03038409370197, 328.8019436496269, 322.61951345440366, 291.9669452541326, 286.1228630084171, 335.6196363978569, 446.0979452913532, 614.7308013103382, 829.0668841948851, 1078.936026454896, 1353.1613105044896, 1676.4426177201103, 2005.9796162179312, 2080.836072950955, 1734.8977396414475, 1203.6966160132686, 763.3983365238086, 436.4658488609314, 215.41701525306075, 136.59067528089258, 138.5641531392871, 133.46096709965582, 132.2437736090153, 188.58880469765836, 309.7085957024142, 476.2820940964029, 695.9326171829108, 969.0381077402021, 1251.6162999584203, 1549.9963209067287, 1914.7038777702817, 2204.580858933835, 2135.415042569185, 1694.5963869164575, 1159.985667919343, 712.1310787331402, 372.196363441175, 167.89790222878287, 88.12720968480653, 53.436384331699514, 29.765038611746377, 36.85659905177977, 93.87090760396586, 214.62243931255364, 396.2161789331478, 627.56325145497, 897.3902793706335, 1177.7960030504164, 1473.454942119781, 1824.8593310205003, 2134.805746923028, 2141.6300040753754, 1740.345517458488, 1170.639643174864, 756.1201921767613, 580.1407068263173, 507.8912128495023, 447.147349358483, 415.4595368370397, 398.00860137289834, 379.60677066548925, 432.1289103251088, 576.4816670217843, 722.077070641337, 832.0662179164925, 952.42876366081, 1107.0202809782897, 1332.483499052253, 1644.2102041038384, 1842.535140622199, 1677.4490184840483, 1258.092469661889, 913.1478890625137, 738.467944137196]"
2025-02-14 18:17:38,"[977.9863541971159, 934.6147387616584, 885.2409941641316, 831.1669476840295, 807.1979690574233, 863.3139460894939, 970.9183014101332, 1047.4874495947286, 1109.0530463212838, 1240.1734892727623, 1452.6297351327007, 1730.1847650597458, 2029.0484585901481, 2123.621317137497, 1795.4877217983994, 1223.4250161358589, 794.7051381572893, 595.9315597447836, 462.9047880148775, 351.39750662854954, 307.8721620595046, 300.45209913075894, 302.56594289325767, 332.9266837829616, 383.74832341322724, 444.34548059409303, 548.4540524214203, 746.5599835589292, 1018.3333939860469, 1287.7750332928272, 1575.4334854451463, 1900.5331482039187, 2041.1154936347648, 1781.560509787018, 1284.1770113000425, 848.3244612453332, 545.8092034454467, 338.51948355441516, 242.02516423873942, 227.68641238578255, 218.5204881649987, 214.0352149662865, 259.21218935442255, 357.4406926351687, 502.59856048235764, 701.8330719992825, 923.3510349339069, 1136.2246403068239, 1394.4267063835912, 1687.528695357064, 1878.5342631579817, 1974.9523942089218, 2028.9225613219446, 1870.6044589309304, 1450.241736060135, 1005.1004078095359, 685.639941711688, 488.099011443691, 400.42582925078136, 375.58687142000883, 353.2450653413458, 329.2655774971205, 343.75937739086476, 423.8839155345061, 547.8364180840351, 699.9816258126774, 901.145320097544, 1119.4751863720858, 1322.5986144001233, 1588.8434047707922, 1868.4334254197388, 1875.6665776604777, 1520.184308331036, 1051.1854366039195, 679.3236520440801, 433.0764382318006, 297.6913952599774, 258.2997272719954, 272.41776903188827, 291.619865746869, 319.5499939992792, 397.1414092276991, 527.8553797504306, 688.7502074946001, 884.0852885590754, 1122.1683332404887, 1379.5095219111067, 1656.5418606195276, 1987.9828308196434, 2269.125407003527, 2246.4022829023443, 1852.6536089124847, 1324.932766981443, 890.0561790262818, 576.5975791774902, 362.57175712133255, 262.40300168083866, 236.18239124257377, 208.44062323741207, 186.59017269378444, 227.81744324260717, 336.58613796155305, 485.5023914842017, 674.8022592794327, 911.5664555583068, 1163.7549781835937, 1401.0833335397251, 1671.6175401556766, 1988.6268219471972, 2150.23252020381, 1936.8432958128942, 1452.4500190838112, 976.5637744470368, 617.0719408891523, 359.09199306343066, 222.6755640527374, 185.66023630368966, 163.03439029516483, 142.14552918747904, 180.93989024732275, 285.7561866993984, 420.96137124851396, 596.0441763498131, 829.7272173352069, 1081.9750061179811, 1317.0772556138995, 1574.5679570447996, 1889.7562841590989, 2132.1088099069134, 2052.3406822114607, 1624.1155165537743, 1118.2816226380692, 734.2411836098496, 481.21090415705703, 359.1066702949739, 339.3902522205344, 328.2685506977267, 295.70808848323054, 297.67195296058173, 383.3833845722139, 547.2520405175571, 744.308562004126, 959.3341981377985, 1210.4984414834973, 1486.304428703465, 1788.1438069329029, 2099.0125390268313, 2217.677051764807, 1944.2942208998256, 1431.70033099793, 975.9141900754719, 643.0125923298714, 401.0520830277484, 282.057440892203, 250.40733656397515, 214.56944530900648, 176.30464119280828, 201.70476750382272, 309.6079932260658, 461.751181554444, 636.0360036017628, 852.7478775773556, 1106.5083476272212, 1368.8975489736101, 1669.7337623244448, 1990.8108623711496, 2117.5978638877596, 1865.0648053867894, 1374.3711323457328, 928.9815299692732, 615.6981755748008, 388.88079514321043, 259.2944744854202, 221.09766697677253, 204.91175849895853, 194.4070120597505, 230.952854282339, 335.9750557492612, 505.36060983306305, 722.3891791931637, 970.722822161512, 1238.2578268284647, 1510.9814777458091, 1813.6391398642431, 2131.871728711723, 2237.6935578749726, 1930.778048377053, 1413.449732294198, 982.1314912849862, 651.3642061686596, 410.4416165384389, 326.9449121405215, 329.8282334762015, 310.92652105575723, 289.84674367288085, 329.4928960990177, 445.0541942294403, 603.9177352212337, 779.1717735712153, 975.7524229024557, 1187.867246191572, 1429.931496323948, 1735.0143073692989, 1945.0537698614403, 1778.9163407895362, 1293.7106145845073, 832.3839200005374, 526.6641198868094, 323.6572382620626, 235.1612450194092, 238.351848504161, 251.75642752399256, 272.50562983411714, 337.43750279137566, 461.07332734545975, 652.1373641398466, 882.1064630032984, 1116.8669109845605, 1372.109384982335, 1646.7594573386214, 1921.7468629947048, 2172.109002145655, 2236.996998172742, 1946.3558709354384, 1437.0404076234458, 986.3560464896784, 663.9212991056942, 438.6919058961338, 331.0148055968741, 303.6592414467824, 281.86638736348425, 268.6864719580884, 299.94266730808397, 386.74624268279103, 521.3402245870213, 687.7138341173899, 889.5223729485638, 1119.6663612514885, 1337.2374645911982, 1571.131702425539, 1857.682587686273, 2001.09574800453, 1763.8220063800577, 1281.2829282320822, 853.6949347912397, 532.2227494643839, 287.2462578575097, 191.7183856591289, 201.1777797476692, 176.2464341384392, 135.79771944821073, 161.5923615216135, 242.40244638584056, 366.85610557242444, 538.3194055688068, 744.3714907420336, 996.0663763126886, 1271.5329153018406, 1548.5875181979293, 1846.266491196764, 2019.3080819800057, 1852.4274971701993, 1448.8456817963197, 1082.9029577242304, 840.7211721997562, 709.0135167113002, 691.1126341549044, 730.7958169994123, 754.3332140070536, 758.3501483877728, 792.7183879188631, 891.5825972586612, 1023.5254085033106, 1158.51401411638, 1326.5123961977074, 1525.7574731259724, 1733.928993204591, 1994.0349927916259, 2233.2878868399607, 2187.5429523229536, 1784.2983081041461, 1284.4434025591595, 892.6970693066812, 605.1670439288498, 412.0872473835585, 313.2791453477946, 248.21629753771413, 170.4587937207757, 85.83385712483062, 22.118399569075677, -1.0732276482137877, 2.5282074129062266, 30.685387667252257, 95.66750300783872, 145.2820733589832, 183.3845524126741, 338.85613160131834, 562.0604422939671, 683.7340594837275]"